Time (s),Channel 1 (V)
-1.12925,-0.015716995748043
-1.129,-0.013340576033818
-1.12875,-0.015038018686836
-1.1285,-0.012661598972611
-1.12825,-0.015377507217439
-1.128,-0.013340576033818
-1.12775,-0.017414438401061
-1.1275,-0.015716995748043
-1.12725,-0.018772392523475
-1.127,-0.017414438401061
-1.12675,-0.023185743421322
-1.1265,-0.023864720482529
-1.12625,-0.027599094319168
-1.126,-0.024204209013132
-1.12575,-0.024543697543736
-1.1255,-0.020809323707097
-1.12525,-0.0211488122377
-1.125,-0.017753926931664
-1.12475,-0.018432903992872
-1.1245,-0.01639597280925
-1.12425,-0.019111881054079
-1.124,-0.018772392523475
-1.12375,-0.024543697543736
-1.1235,-0.026241140196754
-1.12325,-0.034049376400636
-1.123,-0.035407330523051
-1.12275,-0.040839147012708
-1.1225,-0.040499658482104
-1.12225,-0.044234032318744
-1.122,-0.041518124073915
-1.12175,-0.045591986441158
-1.1215,-0.04287607819633
-1.12125,-0.045591986441158
-1.121,-0.043215566726933
-1.12075,-0.045591986441158
-1.1205,-0.043555055257537
-1.12025,-0.045252497910555
-1.12,-0.04389454378814
-1.11975,-0.046949940563572
-1.1195,-0.042536589665726
-1.11925,-0.042197101135122
-1.119,-0.038802215829087
-1.11875,-0.040839147012708
-1.1185,-0.040160169951501
-1.11825,-0.042197101135122
-1.118,-0.040839147012708
-1.11775,-0.041857612604519
-1.1175,-0.040499658482104
-1.11725,-0.040160169951501
-1.117,-0.039481192890294
-1.11675,-0.038802215829087
-1.1165,-0.036425796114861
-1.11625,-0.034728353461844
-1.116,-0.032691422278222
-1.11575,-0.029975514033393
-1.1155,-0.026920117257961
-1.11525,-0.02488318607434
-1.115,-0.022506766360115
-1.11475,-0.020809323707097
-1.1145,-0.019790858115286
-1.11425,-0.018772392523475
-1.114,-0.019111881054079
-1.11375,-0.018093415462268
-1.1135,-0.017753926931664
-1.11325,-0.016056484278646
-1.113,-0.014698530156232
-1.11275,-0.011982621911403
-1.1125,-0.010624667788989
-1.11225,-0.010285179258386
-1.112,-0.009945690727782
-1.11175,-0.008248248074764
-1.1115,-0.009606202197178
-1.11125,-0.010285179258386
-1.111,-0.011982621911403
-1.11075,-0.0116431333808
-1.1105,-0.012661598972611
-1.11025,-0.013001087503214
-1.11,-0.014359041625629
-1.10975,-0.0116431333808
-1.1095,-0.010624667788989
-1.10925,-0.009606202197178
-1.109,-0.013001087503214
-1.10875,-0.012322110442007
-1.1085,-0.013680064564421
-1.10825,-0.011303644850196
-1.108,-0.013001087503214
-1.10775,-0.010624667788989
-1.1075,-0.012661598972611
-1.10725,-0.009606202197178
-1.107,-0.011982621911403
-1.10675,-0.010624667788989
-1.1065,-0.014698530156232
-1.10625,-0.013340576033818
-1.106,-0.01639597280925
-1.10575,-0.015716995748043
-1.1055,-0.022506766360115
-1.10525,-0.024204209013132
-1.105,-0.030993979625204
-1.10475,-0.030654491094601
-1.1045,-0.03438886493124
-1.10425,-0.029975514033393
-1.104,-0.030654491094601
-1.10375,-0.024543697543736
-1.1035,-0.02488318607434
-1.10325,-0.018432903992872
-1.103,-0.018093415462268
-1.10275,-0.011982621911403
-1.1025,-0.0116431333808
-1.10225,-0.00689029395235
-1.102,-0.010624667788989
-1.10175,-0.010964156319593
-1.1015,-0.017074949870457
-1.10125,-0.017074949870457
-1.101,-0.022167277829511
-1.10075,-0.022506766360115
-1.1005,-0.027599094319168
-1.10025,-0.027938582849772
-1.1,-0.03438886493124
-1.09975,-0.033709887870033
-1.0995,-0.037444261706672
-1.09925,-0.034049376400636
-1.099,-0.035746819053654
-1.09875,-0.032351933747618
-1.0985,-0.035067841992447
-1.09825,-0.030993979625204
-1.098,-0.033030910808826
-1.09775,-0.029296536972186
-1.0975,-0.031333468155808
-1.09725,-0.026580628727358
-1.097,-0.028957048441583
-1.09675,-0.023864720482529
-1.0965,-0.025222674604943
-1.09625,-0.019790858115286
-1.096,-0.020130346645889
-1.09575,-0.015038018686836
-1.0955,-0.016056484278646
-1.09525,-0.012661598972611
-1.095,-0.014019553095025
-1.09475,-0.010624667788989
-1.0945,-0.011982621911403
-1.09425,-0.008927225135971
-1.094,-0.011303644850196
-1.09375,-0.009606202197178
-1.0935,-0.011982621911403
-1.09325,-0.010285179258386
-1.093,-0.010964156319593
-1.09275,-0.008248248074764
-1.0925,-0.00790875954416
-1.09225,-0.004513874238125
-1.092,-0.003495408646314
-1.09175,0.000578453720929
-1.0915,0.00159691931274
-1.09125,0.004991804618776
-1.091,0.004991804618776
-1.09075,0.007028735802397
-1.0905,0.004991804618776
-1.09025,0.005331293149379
-1.09,0.003633850496361
-1.08975,0.004312827557569
-1.0895,0.003633850496361
-1.08925,0.004991804618776
-1.089,0.005670781679983
-1.08875,0.009744644047226
-1.0885,0.012121063761451
-1.08825,0.013139529353262
-1.088,0.01110259816964
-1.08775,0.008726178455415
-1.0875,0.004652316088172
-1.08725,-0.001458477462692
-1.087,-0.00689029395235
-1.08675,-0.010964156319593
-1.0865,-0.009945690727782
-1.08625,-0.008587736605368
-1.086,-0.004174385707521
-1.08575,-0.001797965993296
-1.0855,0.001257430782136
-1.08525,0.002615384904551
-1.085,0.005670781679983
-1.08475,0.006010270210586
-1.0845,0.007368224333001
-1.08425,0.005670781679983
-1.084,0.004991804618776
-1.08375,0.001936407843344
-1.0835,0.000917942251533
-1.08325,-0.003495408646314
-1.083,-0.003834897176917
-1.08275,-0.008248248074764
-1.0825,-0.007569271013557
-1.08225,-0.013001087503214
-1.082,-0.013680064564421
-1.08175,-0.019451369584682
-1.0815,-0.019790858115286
-1.08125,-0.024204209013132
-1.081,-0.023525231951925
-1.08075,-0.027938582849772
-1.0805,-0.028278071380375
-1.08025,-0.033709887870033
-1.08,-0.036086307584258
-1.07975,-0.042536589665726
-1.0795,-0.040499658482104
-1.07925,-0.041857612604519
-1.079,-0.038123238767879
-1.07875,-0.040839147012708
-1.0785,-0.036765284645465
-1.07825,-0.037104773176069
-1.078,-0.032012445217015
-1.07775,-0.031672956686411
-1.0775,-0.027938582849772
-1.07725,-0.028957048441583
-1.077,-0.025562163135547
-1.07675,-0.027599094319168
-1.0765,-0.023185743421322
-1.07625,-0.022846254890718
-1.076,-0.017074949870457
-1.07575,-0.017074949870457
-1.0755,-0.013340576033818
-1.07525,-0.014019553095025
-1.075,-0.010964156319593
-1.07475,-0.0116431333808
-1.0745,-0.006550805421746
-1.07425,-0.006211316891142
-1.074,-0.000440011870882
-1.07375,0.000578453720929
-1.0735,0.006689247271794
-1.07325,0.007028735802397
-1.073,0.012121063761451
-1.07275,0.01008413257783
-1.0725,0.013479017883865
-1.07225,0.01008413257783
-1.072,0.010763109639037
-1.07175,0.005331293149379
-1.0715,0.004991804618776
-1.07125,0.000917942251533
-1.071,0.002615384904551
-1.07075,0.001936407843344
-1.0705,0.007028735802397
-1.07025,0.008726178455415
-1.07,0.014157994945073
-1.06975,0.015515949067487
-1.0695,0.018910834373523
-1.06925,0.017552880251108
-1.069,0.018231857312316
-1.06875,0.016194926128694
-1.0685,0.017552880251108
-1.06825,0.015176460536883
-1.068,0.01483697200628
-1.06775,0.012121063761451
-1.0675,0.010763109639037
-1.06725,0.008386689924812
-1.067,0.007707712863604
-1.06675,0.004652316088172
-1.0665,0.004312827557569
-1.06625,0.003294361965758
-1.066,0.003973339026965
-1.06575,0.002615384904551
-1.0655,0.003973339026965
-1.06525,0.004312827557569
-1.065,0.004652316088172
-1.06475,0.004991804618776
-1.0645,0.004312827557569
-1.06425,0.004312827557569
-1.064,-0.001118988932089
-1.06375,-0.004174385707521
-1.0635,-0.009606202197178
-1.06325,-0.011303644850196
-1.063,-0.014359041625629
-1.06275,-0.016735461339854
-1.0625,-0.019451369584682
-1.06225,-0.020130346645889
-1.062,-0.022506766360115
-1.06175,-0.023525231951925
-1.0615,-0.025562163135547
-1.06125,-0.026241140196754
-1.061,-0.027259605788565
-1.06075,-0.026580628727358
-1.0605,-0.027599094319168
-1.06025,-0.028617559910979
-1.06,-0.033030910808826
-1.05975,-0.034728353461844
-1.0595,-0.036765284645465
-1.05925,-0.035407330523051
-1.059,-0.035407330523051
-1.05875,-0.034049376400636
-1.0585,-0.036425796114861
-1.05825,-0.03438886493124
-1.058,-0.035746819053654
-1.05775,-0.032012445217015
-1.0575,-0.032691422278222
-1.05725,-0.028957048441583
-1.057,-0.030654491094601
-1.05675,-0.026920117257961
-1.0565,-0.028278071380375
-1.05625,-0.024543697543736
-1.056,-0.025562163135547
-1.05575,-0.022167277829511
-1.0555,-0.024204209013132
-1.05525,-0.0211488122377
-1.055,-0.023185743421322
-1.05475,-0.018432903992872
-1.0545,-0.019451369584682
-1.05425,-0.013340576033818
-1.054,-0.014359041625629
-1.05375,-0.009266713666575
-1.0535,-0.010624667788989
-1.05325,-0.008248248074764
-1.053,-0.0116431333808
-1.05275,-0.009606202197178
-1.0525,-0.012322110442007
-1.05225,-0.008927225135971
-1.052,-0.010285179258386
-1.05175,-0.005532339829935
-1.0515,-0.005871828360539
-1.05125,-0.000779500401485
-1.051,-0.0021374545239
-1.05075,0.002954873435154
-1.0505,0.00159691931274
-1.05025,0.007368224333001
-1.05,0.006689247271794
-1.04975,0.01110259816964
-1.0495,0.008726178455415
-1.04925,0.01008413257783
-1.049,0.005670781679983
-1.04875,0.008047201394208
-1.0485,0.006010270210586
-1.04825,0.01008413257783
-1.048,0.008047201394208
-1.04775,0.01110259816964
-1.0475,0.009065666986019
-1.04725,0.013139529353262
-1.047,0.01110259816964
-1.04675,0.014497483475676
-1.0465,0.010763109639037
-1.04625,0.013479017883865
-1.046,0.013139529353262
-1.04575,0.016873903189901
-1.0455,0.014497483475676
-1.04525,0.01585543759809
-1.045,0.01008413257783
-1.04475,0.009065666986019
-1.0445,0.002954873435154
-1.04425,0.002615384904551
-1.044,-0.000779500401485
-1.04375,0.001257430782136
-1.0435,-0.0021374545239
-1.04325,-0.002476943054503
-1.043,-0.005871828360539
-1.04275,-0.006211316891142
-1.0425,-0.013001087503214
-1.04225,-0.014359041625629
-1.042,-0.019111881054079
-1.04175,-0.021827789298907
-1.0415,-0.026241140196754
-1.04125,-0.027938582849772
-1.041,-0.031333468155808
-1.04075,-0.033370399339429
-1.0405,-0.036425796114861
-1.04025,-0.036765284645465
-1.04,-0.037104773176069
-1.03975,-0.03438886493124
-1.0395,-0.033370399339429
-1.03925,-0.030654491094601
-1.039,-0.028617559910979
-1.03875,-0.027599094319168
-1.0385,-0.027599094319168
-1.03825,-0.026241140196754
-1.038,-0.026920117257961
-1.03775,-0.02590165166615
-1.0375,-0.02590165166615
-1.03725,-0.025562163135547
-1.037,-0.025222674604943
-1.03675,-0.024204209013132
-1.0365,-0.022167277829511
-1.03625,-0.020809323707097
-1.036,-0.017414438401061
-1.03575,-0.01639597280925
-1.0355,-0.013340576033818
-1.03525,-0.011982621911403
-1.035,-0.009606202197178
-1.03475,-0.008587736605368
-1.0345,-0.005192851299332
-1.03425,-0.004853362768728
-1.034,-0.0021374545239
-1.03375,-0.002816431585107
-1.0335,-0.000779500401485
-1.03325,-0.00315592011571
-1.033,-0.001118988932089
-1.03275,-0.004174385707521
-1.0325,-0.001118988932089
-1.03225,-0.001797965993296
-1.032,0.002275896373947
-1.03175,0.000238965190326
-1.0315,0.002615384904551
-1.03125,0.000578453720929
-1.031,0.003973339026965
-1.03075,0.002275896373947
-1.0305,0.004312827557569
-1.03025,0.002275896373947
-1.03,0.005331293149379
-1.02975,0.003294361965758
-1.0295,0.004991804618776
-1.02925,0.001936407843344
-1.029,0.002615384904551
-1.02875,0.000578453720929
-1.0285,0.004652316088172
-1.02825,0.003973339026965
-1.028,0.007368224333001
-1.02775,0.004991804618776
-1.0275,0.007368224333001
-1.02725,0.004991804618776
-1.027,0.008047201394208
-1.02675,0.004652316088172
-1.0265,0.00634975874119
-1.02625,0.003294361965758
-1.026,0.006010270210586
-1.02575,0.004312827557569
-1.0255,0.004991804618776
-1.02525,0.002275896373947
-1.025,0.001936407843344
-1.02475,-0.003495408646314
-1.0245,-0.005532339829935
-1.02425,-0.010624667788989
-1.024,-0.011303644850196
-1.02375,-0.015038018686836
-1.0235,-0.014359041625629
-1.02325,-0.018772392523475
-1.023,-0.019111881054079
-1.02275,-0.023864720482529
-1.0225,-0.022506766360115
-1.02225,-0.024204209013132
-1.022,-0.020809323707097
-1.02175,-0.024543697543736
-1.0215,-0.024543697543736
-1.02125,-0.02963602550279
-1.021,-0.028957048441583
-1.02075,-0.031333468155808
-1.0205,-0.02963602550279
-1.02025,-0.032351933747618
-1.02,-0.032012445217015
-1.01975,-0.035407330523051
-1.0195,-0.033709887870033
-1.01925,-0.036425796114861
-1.019,-0.038123238767879
-1.01875,-0.042197101135122
-1.0185,-0.042536589665726
-1.01825,-0.044573520849347
-1.018,-0.043555055257537
-1.01775,-0.042197101135122
-1.0175,-0.037783750237276
-1.01725,-0.035746819053654
-1.017,-0.034728353461844
-1.01675,-0.031333468155808
-1.0165,-0.026580628727358
-1.01625,-0.020130346645889
-1.016,-0.016735461339854
-1.01575,-0.013001087503214
-1.0155,-0.010964156319593
-1.01525,-0.009266713666575
-1.015,-0.008587736605368
-1.01475,-0.007569271013557
-1.0145,-0.00689029395235
-1.01425,-0.005192851299332
-1.014,-0.004853362768728
-1.01375,-0.002816431585107
-1.0135,-0.001458477462692
-1.01325,0.000917942251533
-1.013,0.003294361965758
-1.01275,0.005331293149379
-1.0125,0.006689247271794
-1.01225,0.007707712863604
-1.012,0.007028735802397
-1.01175,0.007707712863604
-1.0115,0.005331293149379
-1.01125,0.004652316088172
-1.011,0.002615384904551
-1.01075,0.002615384904551
-1.0105,0.000917942251533
-1.01025,0.001257430782136
-1.01,0.000917942251533
-1.00975,0.004312827557569
-1.0095,0.004991804618776
-1.00925,0.007707712863604
-1.009,0.004991804618776
-1.00875,0.006689247271794
-1.0085,0.004991804618776
-1.00825,0.007707712863604
-1.008,0.005331293149379
-1.00775,0.007368224333001
-1.0075,0.006689247271794
-1.00725,0.012121063761451
-1.007,0.012460552292055
-1.00675,0.018231857312316
-1.0065,0.017213391720505
-1.00625,0.021626742618351
-1.006,0.020268788495937
-1.00575,0.022305719679559
-1.0055,0.016534414659298
-1.00525,0.016194926128694
-1.005,0.009405155516622
-1.00475,0.008386689924812
-1.0045,0.002615384904551
-1.00425,0.003973339026965
-1.004,-0.000100523340278
-1.00375,0.00159691931274
-1.0035,-0.004174385707521
-1.00325,-0.004174385707521
-1.003,-0.0116431333808
-1.00275,-0.011982621911403
-1.0025,-0.018772392523475
-1.00225,-0.018432903992872
-1.002,-0.023525231951925
-1.00175,-0.022167277829511
-1.0015,-0.025562163135547
-1.00125,-0.022506766360115
-1.001,-0.02590165166615
-1.00075,-0.024204209013132
-1.0005,-0.028278071380375
-1.00025,-0.027599094319168
-1,-0.035067841992447
-0.99975,-0.034728353461844
-0.9995,-0.03914170435969
-0.99925,-0.035407330523051
-0.999,-0.038123238767879
-0.99875,-0.034728353461844
-0.9985,-0.036425796114861
-0.99825,-0.033030910808826
-0.998,-0.035407330523051
-0.99775,-0.032012445217015
-0.9975,-0.03438886493124
-0.99725,-0.029296536972186
-0.997,-0.02963602550279
-0.99675,-0.023864720482529
-0.9965,-0.023185743421322
-0.99625,-0.017753926931664
-0.996,-0.018772392523475
-0.99575,-0.015038018686836
-0.9955,-0.017074949870457
-0.99525,-0.014698530156232
-0.995,-0.017753926931664
-0.99475,-0.012322110442007
-0.9945,-0.0116431333808
-0.99425,-0.005192851299332
-0.994,-0.004174385707521
-0.99375,0.000917942251533
-0.9935,0.001257430782136
-0.99325,0.001936407843344
-0.993,0.002275896373947
-0.99275,0.005331293149379
-0.9925,0.008386689924812
-0.99225,0.010763109639037
-0.992,0.009744644047226
-0.99175,0.01110259816964
-0.9915,0.008726178455415
-0.99125,0.008726178455415
-0.991,0.007368224333001
-0.99075,0.007707712863604
-0.9905,0.00634975874119
-0.99025,0.007368224333001
-0.99,0.00634975874119
-0.98975,0.008047201394208
-0.9895,0.008047201394208
-0.98925,0.009405155516622
-0.989,0.008047201394208
-0.98875,0.009405155516622
-0.9885,0.01008413257783
-0.98825,0.010763109639037
-0.988,0.01008413257783
-0.98775,0.008726178455415
-0.9875,0.007368224333001
-0.98725,0.007028735802397
-0.987,0.00634975874119
-0.98675,0.004991804618776
-0.9865,0.004991804618776
-0.98625,0.002615384904551
-0.986,0.002954873435154
-0.98575,0.001936407843344
-0.9855,0.002954873435154
-0.98525,0.003633850496361
-0.985,0.004991804618776
-0.98475,0.003633850496361
-0.9845,0.003294361965758
-0.98425,0.001257430782136
-0.984,0.00159691931274
-0.98375,-0.001458477462692
-0.9835,-0.000779500401485
-0.98325,-0.004174385707521
-0.983,-0.004513874238125
-0.98275,-0.009266713666575
-0.9825,-0.010964156319593
-0.98225,-0.018093415462268
-0.982,-0.020130346645889
-0.98175,-0.027259605788565
-0.9815,-0.027259605788565
-0.98125,-0.030315002563997
-0.981,-0.027599094319168
-0.98075,-0.028617559910979
-0.9805,-0.025562163135547
-0.98025,-0.029975514033393
-0.98,-0.030654491094601
-0.97975,-0.035067841992447
-0.9795,-0.033709887870033
-0.97925,-0.036086307584258
-0.979,-0.032691422278222
-0.97875,-0.034728353461844
-0.9785,-0.032691422278222
-0.97825,-0.035407330523051
-0.978,-0.033370399339429
-0.97775,-0.035407330523051
-0.9775,-0.033030910808826
-0.97725,-0.034728353461844
-0.977,-0.032691422278222
-0.97675,-0.034049376400636
-0.9765,-0.029296536972186
-0.97625,-0.028617559910979
-0.976,-0.023185743421322
-0.97575,-0.022846254890718
-0.9755,-0.017414438401061
-0.97525,-0.016056484278646
-0.975,-0.010285179258386
-0.97475,-0.009945690727782
-0.9745,-0.006550805421746
-0.97425,-0.00689029395235
-0.974,-0.002816431585107
-0.97375,-0.002476943054503
-0.9735,0.002275896373947
-0.97325,0.00159691931274
-0.973,0.005331293149379
-0.97275,0.003294361965758
-0.9725,0.007028735802397
-0.97225,0.005331293149379
-0.972,0.009405155516622
-0.97175,0.008386689924812
-0.9715,0.011442086700244
-0.97125,0.009065666986019
-0.971,0.010423621108433
-0.97075,0.008386689924812
-0.9705,0.01008413257783
-0.97025,0.008047201394208
-0.97,0.010763109639037
-0.96975,0.01008413257783
-0.9695,0.011442086700244
-0.96925,0.007028735802397
-0.969,0.005670781679983
-0.96875,0.005331293149379
-0.9685,0.007368224333001
-0.96825,0.007707712863604
-0.968,0.009405155516622
-0.96775,0.008726178455415
-0.9675,0.009744644047226
-0.96725,0.00634975874119
-0.967,0.005331293149379
-0.96675,0.003973339026965
-0.9665,0.004312827557569
-0.96625,0.004991804618776
-0.966,0.004652316088172
-0.96575,0.004312827557569
-0.9655,0.002615384904551
-0.96525,0.001936407843344
-0.965,-0.000100523340278
-0.96475,-0.001118988932089
-0.9645,-0.00315592011571
-0.96425,-0.004174385707521
-0.964,-0.007229782482953
-0.96375,-0.008927225135971
-0.9635,-0.013340576033818
-0.96325,-0.016056484278646
-0.963,-0.020809323707097
-0.96275,-0.023185743421322
-0.9625,-0.027259605788565
-0.96225,-0.027938582849772
-0.962,-0.030315002563997
-0.96175,-0.030993979625204
-0.9615,-0.033370399339429
-0.96125,-0.034728353461844
-0.961,-0.037783750237276
-0.96075,-0.039820681420897
-0.9605,-0.04287607819633
-0.96025,-0.043555055257537
-0.96,-0.046270963502365
-0.95975,-0.044913009379951
-0.9595,-0.045591986441158
-0.95925,-0.043215566726933
-0.959,-0.043215566726933
-0.95875,-0.040160169951501
-0.9585,-0.040839147012708
-0.95825,-0.036425796114861
-0.958,-0.036765284645465
-0.95775,-0.031672956686411
-0.9575,-0.031672956686411
-0.95725,-0.025562163135547
-0.957,-0.025222674604943
-0.95675,-0.018432903992872
-0.9565,-0.017753926931664
-0.95625,-0.011982621911403
-0.956,-0.013001087503214
-0.95575,-0.009266713666575
-0.9555,-0.011982621911403
-0.95525,-0.008248248074764
-0.955,-0.010624667788989
-0.95475,-0.007229782482953
-0.9545,-0.008927225135971
-0.95425,-0.005192851299332
-0.954,-0.009266713666575
-0.95375,-0.00689029395235
-0.9535,-0.010964156319593
-0.95325,-0.007569271013557
-0.953,-0.010624667788989
-0.95275,-0.00790875954416
-0.9525,-0.009606202197178
-0.95225,-0.005871828360539
-0.952,-0.009266713666575
-0.95175,-0.006550805421746
-0.9515,-0.008587736605368
-0.95125,-0.004853362768728
-0.951,-0.005871828360539
-0.95075,0.000238965190326
-0.9505,-0.000100523340278
-0.95025,0.003294361965758
-0.95,0.000917942251533
-0.94975,0.003973339026965
-0.9495,-0.001797965993296
-0.94925,-0.000779500401485
-0.949,-0.004853362768728
-0.94875,-0.000779500401485
-0.9485,-0.000779500401485
-0.94825,0.004652316088172
-0.948,0.002275896373947
-0.94775,0.006010270210586
-0.9475,0.002275896373947
-0.94725,0.005331293149379
-0.947,0.002275896373947
-0.94675,0.004991804618776
-0.9465,0.001936407843344
-0.94625,0.005331293149379
-0.946,0.002954873435154
-0.94575,0.006689247271794
-0.9455,0.002615384904551
-0.94525,0.002615384904551
-0.945,-0.002816431585107
-0.94475,-0.004174385707521
-0.9445,-0.010285179258386
-0.94425,-0.011982621911403
-0.944,-0.019451369584682
-0.94375,-0.019111881054079
-0.9435,-0.021488300768304
-0.94325,-0.018432903992872
-0.943,-0.0211488122377
-0.94275,-0.020809323707097
-0.9425,-0.024543697543736
-0.94225,-0.024543697543736
-0.942,-0.026920117257961
-0.94175,-0.027938582849772
-0.9415,-0.029975514033393
-0.94125,-0.030654491094601
-0.941,-0.033030910808826
-0.94075,-0.033370399339429
-0.9405,-0.036086307584258
-0.94025,-0.036765284645465
-0.94,-0.039481192890294
-0.93975,-0.03914170435969
-0.9395,-0.037783750237276
-0.93925,-0.035746819053654
-0.939,-0.035067841992447
-0.93875,-0.034728353461844
-0.9385,-0.035746819053654
-0.93825,-0.036425796114861
-0.938,-0.035746819053654
-0.93775,-0.03438886493124
-0.9375,-0.032691422278222
-0.93725,-0.030654491094601
-0.937,-0.029975514033393
-0.93675,-0.029296536972186
-0.9365,-0.027938582849772
-0.93625,-0.027259605788565
-0.936,-0.024543697543736
-0.93575,-0.025562163135547
-0.9355,-0.023185743421322
-0.93525,-0.022167277829511
-0.935,-0.018772392523475
-0.93475,-0.017074949870457
-0.9345,-0.013680064564421
-0.93425,-0.011982621911403
-0.934,-0.008248248074764
-0.93375,-0.008248248074764
-0.9335,-0.004513874238125
-0.93325,-0.005532339829935
-0.933,-0.0021374545239
-0.93275,-0.003834897176917
-0.9325,-0.000440011870882
-0.93225,-0.002476943054503
-0.932,0.001257430782136
-0.93175,0.000238965190326
-0.9315,0.002615384904551
-0.93125,-0.000100523340278
-0.931,0.001936407843344
-0.93075,-0.000779500401485
-0.9305,0.00159691931274
-0.93025,0.000238965190326
-0.93,0.003973339026965
-0.92975,0.003294361965758
-0.9295,0.006689247271794
-0.92925,0.003294361965758
-0.929,0.004312827557569
-0.92875,0.000238965190326
-0.9285,0.000578453720929
-0.92825,-0.004174385707521
-0.928,-0.003834897176917
-0.92775,-0.008587736605368
-0.9275,-0.007569271013557
-0.92725,-0.010285179258386
-0.927,-0.00790875954416
-0.92675,-0.009945690727782
-0.9265,-0.005871828360539
-0.92625,-0.006550805421746
-0.926,-0.003834897176917
-0.92575,-0.006550805421746
-0.9255,-0.005871828360539
-0.92525,-0.008587736605368
-0.925,-0.008248248074764
-0.92475,-0.0116431333808
-0.9245,-0.0116431333808
-0.92425,-0.015716995748043
-0.924,-0.016735461339854
-0.92375,-0.021488300768304
-0.9235,-0.021827789298907
-0.92325,-0.027599094319168
-0.923,-0.026241140196754
-0.92275,-0.027938582849772
-0.9225,-0.02590165166615
-0.92225,-0.028617559910979
-0.922,-0.027259605788565
-0.92175,-0.030993979625204
-0.9215,-0.029296536972186
-0.92125,-0.035067841992447
-0.921,-0.033370399339429
-0.92075,-0.036086307584258
-0.9205,-0.032691422278222
-0.92025,-0.037444261706672
-0.92,-0.040160169951501
-0.91975,-0.045252497910555
-0.9195,-0.046949940563572
-0.91925,-0.049665848808401
-0.919,-0.048307894685987
-0.91875,-0.049665848808401
-0.9185,-0.04762891762478
-0.91825,-0.04762891762478
-0.918,-0.045931474971762
-0.91775,-0.044913009379951
-0.9175,-0.04287607819633
-0.91725,-0.040839147012708
-0.917,-0.039820681420897
-0.91675,-0.037104773176069
-0.9165,-0.034049376400636
-0.91625,-0.029296536972186
-0.916,-0.02590165166615
-0.91575,-0.022846254890718
-0.9155,-0.021827789298907
-0.91525,-0.020130346645889
-0.915,-0.019451369584682
-0.91475,-0.018772392523475
-0.9145,-0.019111881054079
-0.91425,-0.017414438401061
-0.914,-0.018093415462268
-0.91375,-0.016056484278646
-0.9135,-0.01639597280925
-0.91325,-0.015377507217439
-0.913,-0.015716995748043
-0.91275,-0.014359041625629
-0.9125,-0.014019553095025
-0.91225,-0.011982621911403
-0.912,-0.011982621911403
-0.91175,-0.010285179258386
-0.9115,-0.010624667788989
-0.91125,-0.008927225135971
-0.911,-0.009606202197178
-0.91075,-0.008248248074764
-0.9105,-0.008927225135971
-0.91025,-0.007229782482953
-0.91,-0.00790875954416
-0.90975,-0.004174385707521
-0.9095,-0.006550805421746
-0.90925,-0.004853362768728
-0.909,-0.008927225135971
-0.90875,-0.00790875954416
-0.9085,-0.009606202197178
-0.90825,-0.00689029395235
-0.908,-0.00689029395235
-0.90775,-0.003834897176917
-0.9075,-0.005192851299332
-0.90725,-0.002476943054503
-0.907,-0.004513874238125
-0.90675,-0.0021374545239
-0.9065,-0.005871828360539
-0.90625,-0.00315592011571
-0.906,-0.005192851299332
-0.90575,-0.002476943054503
-0.9055,-0.00689029395235
-0.90525,-0.005192851299332
-0.905,-0.009606202197178
-0.90475,-0.008248248074764
-0.9045,-0.013340576033818
-0.90425,-0.011303644850196
-0.904,-0.016735461339854
-0.90375,-0.015038018686836
-0.9035,-0.020130346645889
-0.90325,-0.018772392523475
-0.903,-0.023864720482529
-0.90275,-0.023525231951925
-0.9025,-0.02963602550279
-0.90225,-0.030654491094601
-0.902,-0.037104773176069
-0.90175,-0.036086307584258
-0.9015,-0.038462727298483
-0.90125,-0.03438886493124
-0.901,-0.037104773176069
-0.90075,-0.034049376400636
-0.9005,-0.038123238767879
-0.90025,-0.037104773176069
-0.9,-0.044234032318744
-0.89975,-0.041857612604519
-0.8995,-0.045591986441158
-0.89925,-0.042197101135122
-0.899,-0.045591986441158
-0.89875,-0.04389454378814
-0.8985,-0.047289429094176
-0.89825,-0.044913009379951
-0.898,-0.050344825869608
-0.89775,-0.046949940563572
-0.8975,-0.049326360277798
-0.89725,-0.043215566726933
-0.897,-0.045591986441158
-0.89675,-0.041178635543312
-0.8965,-0.041857612604519
-0.89625,-0.035746819053654
-0.896,-0.033709887870033
-0.89575,-0.027938582849772
-0.8955,-0.027599094319168
-0.89525,-0.023864720482529
-0.895,-0.02590165166615
-0.89475,-0.023185743421322
-0.8945,-0.02488318607434
-0.89425,-0.020130346645889
-0.894,-0.019451369584682
-0.89375,-0.015038018686836
-0.8935,-0.015038018686836
-0.89325,-0.013001087503214
-0.893,-0.014019553095025
-0.89275,-0.012322110442007
-0.8925,-0.011982621911403
-0.89225,-0.010964156319593
-0.892,-0.012661598972611
-0.89175,-0.013680064564421
-0.8915,-0.014698530156232
-0.89125,-0.013340576033818
-0.891,-0.014019553095025
-0.89075,-0.012322110442007
-0.8905,-0.013340576033818
-0.89025,-0.011982621911403
-0.89,-0.012661598972611
-0.88975,-0.009945690727782
-0.8895,-0.010285179258386
-0.88925,-0.011303644850196
-0.889,-0.013340576033818
-0.88875,-0.014359041625629
-0.8885,-0.015377507217439
-0.88825,-0.015038018686836
-0.888,-0.015377507217439
-0.88775,-0.016735461339854
-0.8875,-0.014698530156232
-0.88725,-0.010624667788989
-0.887,-0.005871828360539
-0.88675,-0.001797965993296
-0.8865,0.00159691931274
-0.88625,0.002954873435154
-0.886,0.00634975874119
-0.88575,0.006689247271794
-0.8855,0.007368224333001
-0.88525,0.004652316088172
-0.885,0.002275896373947
-0.88475,-0.0021374545239
-0.8845,-0.004853362768728
-0.88425,-0.009945690727782
-0.884,-0.012661598972611
-0.88375,-0.019111881054079
-0.8835,-0.0211488122377
-0.88325,-0.027259605788565
-0.883,-0.027938582849772
-0.88275,-0.030654491094601
-0.8825,-0.028617559910979
-0.88225,-0.030654491094601
-0.882,-0.027599094319168
-0.88175,-0.030315002563997
-0.8815,-0.026580628727358
-0.88125,-0.028957048441583
-0.881,-0.027259605788565
-0.88075,-0.030315002563997
-0.8805,-0.028617559910979
-0.88025,-0.033709887870033
-0.88,-0.034728353461844
-0.87975,-0.039820681420897
-0.8795,-0.038462727298483
-0.87925,-0.041857612604519
-0.879,-0.039820681420897
-0.87875,-0.04287607819633
-0.8785,-0.040160169951501
-0.87825,-0.041178635543312
-0.878,-0.037444261706672
-0.87775,-0.038802215829087
-0.8775,-0.036425796114861
-0.87725,-0.039481192890294
-0.877,-0.037104773176069
-0.87675,-0.038802215829087
-0.8765,-0.035407330523051
-0.87625,-0.035067841992447
-0.876,-0.029975514033393
-0.87575,-0.029975514033393
-0.8755,-0.028278071380375
-0.87525,-0.027599094319168
-0.875,-0.022506766360115
-0.87475,-0.022506766360115
-0.8745,-0.018432903992872
-0.87425,-0.018093415462268
-0.874,-0.014359041625629
-0.87375,-0.013680064564421
-0.8735,-0.010624667788989
-0.87325,-0.011982621911403
-0.873,-0.006211316891142
-0.87275,-0.004853362768728
-0.8725,0.000578453720929
-0.87225,-0.0021374545239
-0.872,-0.000779500401485
-0.87175,-0.003495408646314
-0.8715,-0.001118988932089
-0.87125,-0.003495408646314
-0.871,-0.002476943054503
-0.87075,-0.005192851299332
-0.8705,-0.004174385707521
-0.87025,-0.005532339829935
-0.87,-0.002476943054503
-0.86975,-0.0021374545239
-0.8695,-0.000440011870882
-0.86925,-0.001458477462692
-0.869,-0.001458477462692
-0.86875,-0.0021374545239
-0.8685,-0.000779500401485
-0.86825,-0.002816431585107
-0.868,-0.003834897176917
-0.86775,-0.005192851299332
-0.8675,-0.006550805421746
-0.86725,-0.008248248074764
-0.867,-0.009606202197178
-0.86675,-0.010285179258386
-0.8665,-0.0116431333808
-0.86625,-0.010624667788989
-0.866,-0.010624667788989
-0.86575,-0.009945690727782
-0.8655,-0.0116431333808
-0.86525,-0.011303644850196
-0.865,-0.013340576033818
-0.86475,-0.013001087503214
-0.8645,-0.014698530156232
-0.86425,-0.015038018686836
-0.864,-0.016735461339854
-0.86375,-0.016056484278646
-0.8635,-0.016735461339854
-0.86325,-0.017414438401061
-0.863,-0.020469835176493
-0.86275,-0.023185743421322
-0.8625,-0.028278071380375
-0.86225,-0.031672956686411
-0.862,-0.035746819053654
-0.86175,-0.038123238767879
-0.8615,-0.040499658482104
-0.86125,-0.039481192890294
-0.861,-0.040839147012708
-0.86075,-0.038802215829087
-0.8605,-0.039820681420897
-0.86025,-0.039820681420897
-0.86,-0.044573520849347
-0.85975,-0.044913009379951
-0.8595,-0.04762891762478
-0.85925,-0.046270963502365
-0.859,-0.050005337339005
-0.85875,-0.050344825869608
-0.8585,-0.054079199706248
-0.85825,-0.051702779992023
-0.858,-0.052042268522626
-0.85775,-0.046270963502365
-0.8575,-0.046270963502365
-0.85725,-0.040160169951501
-0.857,-0.041518124073915
-0.85675,-0.036765284645465
-0.8565,-0.038462727298483
-0.85625,-0.033709887870033
-0.856,-0.034728353461844
-0.85575,-0.029975514033393
-0.8555,-0.032012445217015
-0.85525,-0.027938582849772
-0.855,-0.030993979625204
-0.85475,-0.026580628727358
-0.8545,-0.028617559910979
-0.85425,-0.022167277829511
-0.854,-0.022167277829511
-0.85375,-0.015038018686836
-0.8535,-0.015377507217439
-0.85325,-0.010964156319593
-0.853,-0.014698530156232
-0.85275,-0.013340576033818
-0.8525,-0.018093415462268
-0.85225,-0.015716995748043
-0.852,-0.020469835176493
-0.85175,-0.013340576033818
-0.8515,-0.014698530156232
-0.85125,-0.009606202197178
-0.851,-0.010964156319593
-0.85075,-0.00689029395235
-0.8505,-0.00790875954416
-0.85025,-0.002476943054503
-0.85,-0.00689029395235
-0.84975,-0.002816431585107
-0.8495,-0.006550805421746
-0.84925,-0.004513874238125
-0.849,-0.010964156319593
-0.84875,-0.010285179258386
-0.8485,-0.016056484278646
-0.84825,-0.014698530156232
-0.848,-0.018432903992872
-0.84775,-0.015716995748043
-0.8475,-0.017074949870457
-0.84725,-0.010285179258386
-0.847,-0.009945690727782
-0.84675,-0.004174385707521
-0.8465,-0.00689029395235
-0.84625,-0.005192851299332
-0.846,-0.00790875954416
-0.84575,-0.005532339829935
-0.8455,-0.007569271013557
-0.84525,-0.003834897176917
-0.845,-0.00689029395235
-0.84475,-0.005871828360539
-0.8445,-0.009945690727782
-0.84425,-0.008927225135971
-0.844,-0.011303644850196
-0.84375,-0.010285179258386
-0.8435,-0.011982621911403
-0.84325,-0.0116431333808
-0.843,-0.015038018686836
-0.84275,-0.015377507217439
-0.8425,-0.019451369584682
-0.84225,-0.020130346645889
-0.842,-0.023525231951925
-0.84175,-0.023864720482529
-0.8415,-0.024543697543736
-0.84125,-0.023185743421322
-0.841,-0.024204209013132
-0.84075,-0.022846254890718
-0.8405,-0.025222674604943
-0.84025,-0.026920117257961
-0.84,-0.030993979625204
-0.83975,-0.032351933747618
-0.8395,-0.033709887870033
-0.83925,-0.032351933747618
-0.839,-0.032691422278222
-0.83875,-0.032351933747618
-0.8385,-0.032691422278222
-0.83825,-0.033030910808826
-0.838,-0.032351933747618
-0.83775,-0.032012445217015
-0.8375,-0.031672956686411
-0.83725,-0.031333468155808
-0.837,-0.030993979625204
-0.83675,-0.030654491094601
-0.8365,-0.027599094319168
-0.83625,-0.02488318607434
-0.836,-0.018772392523475
-0.83575,-0.016056484278646
-0.8355,-0.011982621911403
-0.83525,-0.010964156319593
-0.835,-0.00790875954416
-0.83475,-0.008248248074764
-0.8345,-0.005532339829935
-0.83425,-0.004513874238125
-0.834,-0.001458477462692
-0.83375,-0.001797965993296
-0.8335,0.001257430782136
-0.83325,0.000578453720929
-0.833,0.004991804618776
-0.83275,0.003973339026965
-0.8325,0.007707712863604
-0.83225,0.007028735802397
-0.832,0.011781575230847
-0.83175,0.011781575230847
-0.8315,0.017213391720505
-0.83125,0.015515949067487
-0.831,0.016873903189901
-0.83075,0.011442086700244
-0.8305,0.009405155516622
-0.83025,0.003633850496361
-0.83,0.004991804618776
-0.82975,0.004312827557569
-0.8295,0.008047201394208
-0.82925,0.005670781679983
-0.829,0.007707712863604
-0.82875,0.005331293149379
-0.8285,0.006010270210586
-0.82825,0.006010270210586
-0.828,0.008047201394208
-0.82775,0.004312827557569
-0.8275,0.005670781679983
-0.82725,0.002615384904551
-0.827,0.005670781679983
-0.82675,0.003294361965758
-0.8265,0.004991804618776
-0.82625,0.005670781679983
-0.826,0.009744644047226
-0.82575,0.010423621108433
-0.8255,0.010423621108433
-0.82525,0.006010270210586
-0.825,0.006010270210586
-0.82475,0.00159691931274
-0.8245,0.000578453720929
-0.82425,-0.004174385707521
-0.824,-0.004513874238125
-0.82375,-0.008248248074764
-0.8235,-0.006211316891142
-0.82325,-0.009266713666575
-0.823,-0.008927225135971
-0.82275,-0.012661598972611
-0.8225,-0.012661598972611
-0.82225,-0.016056484278646
-0.822,-0.014359041625629
-0.82175,-0.017414438401061
-0.8215,-0.015038018686836
-0.82125,-0.01639597280925
-0.821,-0.015377507217439
-0.82075,-0.017074949870457
-0.8205,-0.016735461339854
-0.82025,-0.020469835176493
-0.82,-0.023864720482529
-0.81975,-0.028617559910979
-0.8195,-0.029296536972186
-0.81925,-0.032012445217015
-0.819,-0.032012445217015
-0.81875,-0.03438886493124
-0.8185,-0.034049376400636
-0.81825,-0.035067841992447
-0.818,-0.03438886493124
-0.81775,-0.03438886493124
-0.8175,-0.034728353461844
-0.81725,-0.036086307584258
-0.817,-0.038123238767879
-0.81675,-0.037783750237276
-0.8165,-0.035746819053654
-0.81625,-0.032351933747618
-0.816,-0.02963602550279
-0.81575,-0.025562163135547
-0.8155,-0.023185743421322
-0.81525,-0.019790858115286
-0.815,-0.018772392523475
-0.81475,-0.01639597280925
-0.8145,-0.01639597280925
-0.81425,-0.014698530156232
-0.814,-0.01639597280925
-0.81375,-0.014359041625629
-0.8135,-0.015716995748043
-0.81325,-0.013340576033818
-0.813,-0.013001087503214
-0.81275,-0.010285179258386
-0.8125,-0.008587736605368
-0.81225,-0.006550805421746
-0.812,-0.007229782482953
-0.81175,-0.005871828360539
-0.8115,-0.00689029395235
-0.81125,-0.005532339829935
-0.811,-0.00689029395235
-0.81075,-0.005532339829935
-0.8105,-0.005532339829935
-0.81025,-0.001797965993296
-0.81,-0.002816431585107
-0.80975,-0.000440011870882
-0.8095,-0.004513874238125
-0.80925,-0.004513874238125
-0.809,-0.009606202197178
-0.80875,-0.007569271013557
-0.8085,-0.010624667788989
-0.80825,-0.00689029395235
-0.808,-0.009606202197178
-0.80775,-0.007569271013557
-0.8075,-0.011982621911403
-0.80725,-0.009266713666575
-0.807,-0.012322110442007
-0.80675,-0.010624667788989
-0.8065,-0.010964156319593
-0.80625,-0.006211316891142
-0.806,-0.007229782482953
-0.80575,-0.003495408646314
-0.8055,-0.00689029395235
-0.80525,-0.003834897176917
-0.805,-0.010964156319593
-0.80475,-0.008927225135971
-0.8045,-0.014698530156232
-0.80425,-0.008927225135971
-0.804,-0.013680064564421
-0.80375,-0.011982621911403
-0.8035,-0.016735461339854
-0.80325,-0.015716995748043
-0.803,-0.020809323707097
-0.80275,-0.019790858115286
-0.8025,-0.025562163135547
-0.80225,-0.024543697543736
-0.802,-0.02963602550279
-0.80175,-0.029296536972186
-0.8015,-0.034049376400636
-0.80125,-0.032691422278222
-0.801,-0.036765284645465
-0.80075,-0.035067841992447
-0.8005,-0.039481192890294
-0.80025,-0.038123238767879
-0.8,-0.044573520849347
-0.79975,-0.042197101135122
-0.7995,-0.044913009379951
-0.79925,-0.039481192890294
-0.799,-0.040839147012708
-0.79875,-0.037783750237276
-0.7985,-0.042197101135122
-0.79825,-0.039820681420897
-0.798,-0.04287607819633
-0.79775,-0.038802215829087
-0.7975,-0.040839147012708
-0.79725,-0.036765284645465
-0.797,-0.03914170435969
-0.79675,-0.033709887870033
-0.7965,-0.033709887870033
-0.79625,-0.027599094319168
-0.796,-0.027259605788565
-0.79575,-0.024204209013132
-0.7955,-0.026241140196754
-0.79525,-0.024204209013132
-0.795,-0.026920117257961
-0.79475,-0.023864720482529
-0.7945,-0.023525231951925
-0.79425,-0.019451369584682
-0.794,-0.0211488122377
-0.79375,-0.018432903992872
-0.7935,-0.020469835176493
-0.79325,-0.018093415462268
-0.793,-0.018093415462268
-0.79275,-0.01639597280925
-0.7925,-0.016056484278646
-0.79225,-0.014359041625629
-0.792,-0.014019553095025
-0.79175,-0.011303644850196
-0.7915,-0.011303644850196
-0.79125,-0.010285179258386
-0.791,-0.011303644850196
-0.79075,-0.011982621911403
-0.7905,-0.015038018686836
-0.79025,-0.015377507217439
-0.79,-0.015716995748043
-0.78975,-0.012661598972611
-0.7895,-0.013001087503214
-0.78925,-0.013680064564421
-0.789,-0.016056484278646
-0.78875,-0.015716995748043
-0.7885,-0.014698530156232
-0.78825,-0.013340576033818
-0.788,-0.013340576033818
-0.78775,-0.014698530156232
-0.7875,-0.014698530156232
-0.78725,-0.014019553095025
-0.787,-0.012661598972611
-0.78675,-0.011303644850196
-0.7865,-0.009606202197178
-0.78625,-0.008248248074764
-0.786,-0.004513874238125
-0.78575,-0.005192851299332
-0.7855,-0.004174385707521
-0.78525,-0.005192851299332
-0.785,-0.005532339829935
-0.78475,-0.009266713666575
-0.7845,-0.009606202197178
-0.78425,-0.011982621911403
-0.784,-0.013340576033818
-0.78375,-0.017414438401061
-0.7835,-0.016056484278646
-0.78325,-0.019790858115286
-0.783,-0.019790858115286
-0.78275,-0.024543697543736
-0.7825,-0.026580628727358
-0.78225,-0.033370399339429
-0.782,-0.038462727298483
-0.78175,-0.045931474971762
-0.7815,-0.046949940563572
-0.78125,-0.048986871747194
-0.781,-0.047968406155383
-0.78075,-0.051363291461419
-0.7805,-0.050684314400212
-0.78025,-0.055776642359266
-0.78,-0.056795107951076
-0.77975,-0.059511016195905
-0.7795,-0.055437153828662
-0.77925,-0.053739711175644
-0.779,-0.047968406155383
-0.77875,-0.047968406155383
-0.7785,-0.044573520849347
-0.77825,-0.046949940563572
-0.778,-0.045252497910555
-0.77775,-0.046610452032969
-0.7775,-0.044573520849347
-0.77725,-0.048307894685987
-0.777,-0.047968406155383
-0.77675,-0.050344825869608
-0.7765,-0.04762891762478
-0.77625,-0.047289429094176
-0.776,-0.041857612604519
-0.77575,-0.03914170435969
-0.7755,-0.032351933747618
-0.77525,-0.02963602550279
-0.775,-0.023185743421322
-0.77475,-0.020809323707097
-0.7745,-0.01639597280925
-0.77425,-0.015377507217439
-0.774,-0.013680064564421
-0.77375,-0.016056484278646
-0.7735,-0.014359041625629
-0.77325,-0.016056484278646
-0.773,-0.013001087503214
-0.77275,-0.014698530156232
-0.7725,-0.010964156319593
-0.77225,-0.010624667788989
-0.772,-0.00689029395235
-0.77175,-0.007229782482953
-0.7715,-0.004174385707521
-0.77125,-0.005192851299332
-0.771,-0.002816431585107
-0.77075,-0.004513874238125
-0.7705,-0.002816431585107
-0.77025,-0.00315592011571
-0.77,-0.001118988932089
-0.76975,-0.001458477462692
-0.7695,-0.000779500401485
-0.76925,-0.003495408646314
-0.769,-0.005532339829935
-0.76875,-0.009606202197178
-0.7685,-0.011303644850196
-0.76825,-0.013001087503214
-0.768,-0.011982621911403
-0.76775,-0.010964156319593
-0.7675,-0.010285179258386
-0.76725,-0.009945690727782
-0.767,-0.010964156319593
-0.76675,-0.011303644850196
-0.7665,-0.014359041625629
-0.76625,-0.014698530156232
-0.766,-0.015377507217439
-0.76575,-0.014698530156232
-0.7655,-0.01639597280925
-0.76525,-0.015038018686836
-0.765,-0.015377507217439
-0.76475,-0.015038018686836
-0.7645,-0.017414438401061
-0.76425,-0.018093415462268
-0.764,-0.022846254890718
-0.76375,-0.024204209013132
-0.7635,-0.027259605788565
-0.76325,-0.027938582849772
-0.763,-0.030993979625204
-0.76275,-0.032351933747618
-0.7625,-0.036086307584258
-0.76225,-0.037104773176069
-0.762,-0.039820681420897
-0.76175,-0.040499658482104
-0.7615,-0.042536589665726
-0.76125,-0.041518124073915
-0.761,-0.04287607819633
-0.76075,-0.04389454378814
-0.7605,-0.044913009379951
-0.76025,-0.045931474971762
-0.76,-0.051363291461419
-0.75975,-0.051023802930815
-0.7595,-0.054418688236851
-0.75925,-0.05238175705323
-0.759,-0.055097665298058
-0.75875,-0.056116130889869
-0.7585,-0.057813573542887
-0.75825,-0.053400222645041
-0.758,-0.050684314400212
-0.75775,-0.044913009379951
-0.7575,-0.046270963502365
-0.75725,-0.042536589665726
-0.757,-0.045931474971762
-0.75675,-0.042197101135122
-0.7565,-0.043215566726933
-0.75625,-0.036765284645465
-0.756,-0.036425796114861
-0.75575,-0.030654491094601
-0.7555,-0.032012445217015
-0.75525,-0.026920117257961
-0.755,-0.030315002563997
-0.75475,-0.026920117257961
-0.7545,-0.030315002563997
-0.75425,-0.026241140196754
-0.754,-0.029296536972186
-0.75375,-0.02488318607434
-0.7535,-0.026580628727358
-0.75325,-0.021827789298907
-0.753,-0.023525231951925
-0.75275,-0.019451369584682
-0.7525,-0.020130346645889
-0.75225,-0.015716995748043
-0.752,-0.017074949870457
-0.75175,-0.012661598972611
-0.7515,-0.016056484278646
-0.75125,-0.013001087503214
-0.751,-0.016735461339854
-0.75075,-0.014359041625629
-0.7505,-0.016735461339854
-0.75025,-0.012661598972611
-0.75,-0.015377507217439
-0.74975,-0.009606202197178
-0.7495,-0.011982621911403
-0.74925,-0.008248248074764
-0.749,-0.012322110442007
-0.74875,-0.010285179258386
-0.7485,-0.014019553095025
-0.74825,-0.011303644850196
-0.748,-0.014019553095025
-0.74775,-0.009606202197178
-0.7475,-0.010964156319593
-0.74725,-0.006550805421746
-0.747,-0.009266713666575
-0.74675,-0.00689029395235
-0.7465,-0.010624667788989
-0.74625,-0.007569271013557
-0.746,-0.009266713666575
-0.74575,-0.00689029395235
-0.7455,-0.010285179258386
-0.74525,-0.008587736605368
-0.745,-0.012661598972611
-0.74475,-0.013680064564421
-0.7445,-0.020130346645889
-0.74425,-0.022167277829511
-0.744,-0.026580628727358
-0.74375,-0.026920117257961
-0.7435,-0.029975514033393
-0.74325,-0.029975514033393
-0.743,-0.031672956686411
-0.74275,-0.032012445217015
-0.7425,-0.03438886493124
-0.74225,-0.035746819053654
-0.742,-0.03914170435969
-0.74175,-0.042197101135122
-0.7415,-0.045591986441158
-0.74125,-0.046949940563572
-0.741,-0.048986871747194
-0.74075,-0.04864738321659
-0.7405,-0.049326360277798
-0.74025,-0.049665848808401
-0.74,-0.053060734114437
-0.73975,-0.053060734114437
-0.7395,-0.053400222645041
-0.73925,-0.050684314400212
-0.739,-0.050684314400212
-0.73875,-0.051702779992023
-0.7385,-0.051702779992023
-0.73825,-0.051023802930815
-0.738,-0.049665848808401
-0.73775,-0.050005337339005
-0.7375,-0.052042268522626
-0.73725,-0.051023802930815
-0.737,-0.051023802930815
-0.73675,-0.051363291461419
-0.7365,-0.049665848808401
-0.73625,-0.048307894685987
-0.736,-0.044913009379951
-0.73575,-0.045252497910555
-0.7355,-0.043215566726933
-0.73525,-0.041518124073915
-0.735,-0.036425796114861
-0.73475,-0.033370399339429
-0.7345,-0.030654491094601
-0.73425,-0.030315002563997
-0.734,-0.026241140196754
-0.73375,-0.026580628727358
-0.7335,-0.022506766360115
-0.73325,-0.022167277829511
-0.733,-0.018093415462268
-0.73275,-0.018093415462268
-0.7325,-0.012661598972611
-0.73225,-0.010624667788989
-0.732,-0.003834897176917
-0.73175,-0.002816431585107
-0.7315,0.002275896373947
-0.73125,0.000238965190326
-0.731,0.001936407843344
-0.73075,-0.001797965993296
-0.7305,-0.000100523340278
-0.73025,-0.0021374545239
-0.73,0.001257430782136
-0.72975,0.001257430782136
-0.7295,0.003973339026965
-0.72925,0.000238965190326
-0.729,0.000238965190326
-0.72875,-0.002816431585107
-0.7285,-0.000779500401485
-0.72825,-0.00315592011571
-0.728,-0.0021374545239
-0.72775,-0.006550805421746
-0.7275,-0.007229782482953
-0.72725,-0.011982621911403
-0.727,-0.012322110442007
-0.72675,-0.016735461339854
-0.7265,-0.016735461339854
-0.72625,-0.017753926931664
-0.726,-0.013340576033818
-0.72575,-0.013680064564421
-0.7255,-0.010964156319593
-0.72525,-0.010624667788989
-0.725,-0.006550805421746
-0.72475,-0.005871828360539
-0.7245,-0.002816431585107
-0.72425,-0.005871828360539
-0.724,-0.007229782482953
-0.72375,-0.013001087503214
-0.7235,-0.015716995748043
-0.72325,-0.0211488122377
-0.723,-0.022167277829511
-0.72275,-0.02590165166615
-0.7225,-0.023864720482529
-0.72225,-0.024204209013132
-0.722,-0.020809323707097
-0.72175,-0.022167277829511
-0.7215,-0.020469835176493
-0.72125,-0.023525231951925
-0.721,-0.02488318607434
-0.72075,-0.030654491094601
-0.7205,-0.033370399339429
-0.72025,-0.03914170435969
-0.72,-0.042536589665726
-0.71975,-0.044234032318744
-0.7195,-0.039820681420897
-0.71925,-0.03438886493124
-0.719,-0.029296536972186
-0.71875,-0.027938582849772
-0.7185,-0.027259605788565
-0.71825,-0.028617559910979
-0.718,-0.02963602550279
-0.71775,-0.030315002563997
-0.7175,-0.030993979625204
-0.71725,-0.031672956686411
-0.717,-0.033370399339429
-0.71675,-0.032012445217015
-0.7165,-0.030654491094601
-0.71625,-0.027599094319168
-0.716,-0.025562163135547
-0.71575,-0.022846254890718
-0.7155,-0.022167277829511
-0.71525,-0.020469835176493
-0.715,-0.019451369584682
-0.71475,-0.017753926931664
-0.7145,-0.018432903992872
-0.71425,-0.016056484278646
-0.714,-0.015377507217439
-0.71375,-0.011982621911403
-0.7135,-0.012322110442007
-0.71325,-0.009266713666575
-0.713,-0.008587736605368
-0.71275,-0.00315592011571
-0.7125,-0.003495408646314
-0.71225,-0.0021374545239
-0.712,-0.003495408646314
-0.71175,-0.00315592011571
-0.7115,-0.004513874238125
-0.71125,-0.003834897176917
-0.711,-0.004853362768728
-0.71075,-0.00315592011571
-0.7105,-0.004853362768728
-0.71025,-0.0021374545239
-0.71,-0.00315592011571
-0.70975,-0.000100523340278
-0.7095,-0.004853362768728
-0.70925,-0.005192851299332
-0.709,-0.0116431333808
-0.70875,-0.0116431333808
-0.7085,-0.014019553095025
-0.70825,-0.00790875954416
-0.708,-0.006211316891142
-0.70775,-0.000100523340278
-0.7075,0.000917942251533
-0.70725,0.008047201394208
-0.707,0.007028735802397
-0.70675,0.013139529353262
-0.7065,0.010763109639037
-0.70625,0.015515949067487
-0.706,0.014497483475676
-0.70575,0.020947765557144
-0.7055,0.020268788495937
-0.70525,0.026379582046802
-0.705,0.024682139393784
-0.70475,0.028077024699819
-0.7045,0.025021627924387
-0.70425,0.028756001761027
-0.704,0.025361116454991
-0.70375,0.028416513230423
-0.7035,0.02434265086318
-0.70325,0.027058559108009
-0.703,0.022984696740766
-0.70275,0.026719070577405
-0.7025,0.025361116454991
-0.70225,0.031811398536459
-0.702,0.032150887067062
-0.70175,0.038601169148531
-0.7015,0.039280146209738
-0.70125,0.046069916821809
-0.701,0.046409405352413
-0.70075,0.054896618617502
-0.7005,0.058970480984745
-0.70025,0.068815648372249
-0.7,0.071192068086474
-0.69975,0.079679281351564
-0.6995,0.080697746943375
-0.69925,0.089184960208464
-0.699,0.089863937269671
-0.69875,0.09733268494295
-0.6985,0.100048593187779
-0.69825,0.109554272044679
-0.698,0.113967622942526
-0.69775,0.123473301799426
-0.6975,0.12483125592184
-0.69725,0.130942049472705
-0.697,0.130602560942101
-0.69675,0.136034377431759
-0.6965,0.134336934778741
-0.69625,0.138750285676587
-0.696,0.138410797145984
-0.69575,0.142145170982623
-0.6955,0.141126705390812
-0.69525,0.144521590696848
-0.695,0.142484659513227
-0.69475,0.143163636574434
-0.6945,0.137731820084777
-0.69425,0.135355400370552
-0.694,0.129244606819687
-0.69375,0.126189210044255
-0.6935,0.11905995090158
-0.69325,0.114986088534337
-0.693,0.112609668820111
-0.69275,0.109214783514076
-0.6925,0.105140921146833
-0.69225,0.103103989963211
-0.692,0.099709104657175
-0.69175,0.096993196412347
-0.6915,0.089863937269671
-0.69125,0.083753143718807
-0.691,0.077981838698546
-0.69075,0.075605418984321
-0.6905,0.071871045147682
-0.69025,0.068136671311042
-0.69,0.064062808943799
-0.68975,0.062365366290781
-0.6895,0.057612526862331
-0.68925,0.053878153025692
-0.689,0.049125313597242
-0.68875,0.047767359474827
-0.6885,0.046069916821809
-0.68825,0.045051451229999
-0.688,0.043354008576981
-0.68775,0.040977588862756
-0.6875,0.038601169148531
-0.68725,0.036224749434305
-0.687,0.035885260903702
-0.68675,0.034527306781288
-0.6865,0.036903726495513
-0.68625,0.038940657679134
-0.686,0.041317077393359
-0.68575,0.039959123270945
-0.6855,0.038601169148531
-0.68525,0.035885260903702
-0.685,0.035885260903702
-0.68475,0.033169352658873
-0.6845,0.033169352658873
-0.68425,0.029774467352837
-0.684,0.029774467352837
-0.68375,0.025700604985594
-0.6835,0.025021627924387
-0.68325,0.018910834373523
-0.683,0.016873903189901
-0.68275,0.009744644047226
-0.6825,0.008047201394208
-0.68225,0.00159691931274
-0.682,-0.000779500401485
-0.68175,-0.00790875954416
-0.6815,-0.008587736605368
-0.68125,-0.014359041625629
-0.681,-0.015377507217439
-0.68075,-0.021488300768304
-0.6805,-0.023185743421322
-0.68025,-0.028957048441583
-0.68,-0.030315002563997
-0.67975,-0.03438886493124
-0.6795,-0.032012445217015
-0.67925,-0.03438886493124
-0.679,-0.032691422278222
-0.67875,-0.036425796114861
-0.6785,-0.035746819053654
-0.67825,-0.038123238767879
-0.678,-0.035407330523051
-0.67775,-0.036425796114861
-0.6775,-0.033370399339429
-0.67725,-0.035407330523051
-0.677,-0.033370399339429
-0.67675,-0.035746819053654
-0.6765,-0.033709887870033
-0.67625,-0.034728353461844
-0.676,-0.032691422278222
-0.67575,-0.032691422278222
-0.6755,-0.029296536972186
-0.67525,-0.028957048441583
-0.675,-0.02488318607434
-0.67475,-0.02488318607434
-0.6745,-0.019451369584682
-0.67425,-0.017074949870457
-0.674,-0.012322110442007
-0.67375,-0.013001087503214
-0.6735,-0.0116431333808
-0.67325,-0.014019553095025
-0.673,-0.013001087503214
-0.67275,-0.01639597280925
-0.6725,-0.015377507217439
-0.67225,-0.017753926931664
-0.672,-0.016056484278646
-0.67175,-0.017753926931664
-0.6715,-0.01639597280925
-0.67125,-0.018772392523475
-0.671,-0.016735461339854
-0.67075,-0.015377507217439
-0.6705,-0.010964156319593
-0.67025,-0.008248248074764
-0.67,-0.003834897176917
-0.66975,-0.002476943054503
-0.6695,-0.004853362768728
-0.66925,-0.00790875954416
-0.669,-0.010964156319593
-0.66875,-0.012322110442007
-0.6685,-0.014019553095025
-0.66825,-0.016735461339854
-0.668,-0.019790858115286
-0.66775,-0.022167277829511
-0.6675,-0.023185743421322
-0.66725,-0.022506766360115
-0.667,-0.022506766360115
-0.66675,-0.022167277829511
-0.6665,-0.025222674604943
-0.66625,-0.02488318607434
-0.666,-0.026580628727358
-0.66575,-0.026241140196754
-0.6655,-0.028957048441583
-0.66525,-0.02963602550279
-0.665,-0.035746819053654
-0.66475,-0.040499658482104
-0.6645,-0.048307894685987
-0.66425,-0.051023802930815
-0.664,-0.056455619420473
-0.66375,-0.056795107951076
-0.6635,-0.058153062073491
-0.66325,-0.056795107951076
-0.663,-0.058153062073491
-0.66275,-0.056116130889869
-0.6625,-0.055776642359266
-0.66225,-0.053400222645041
-0.662,-0.054079199706248
-0.66175,-0.052721245583833
-0.6615,-0.053400222645041
-0.66125,-0.051702779992023
-0.661,-0.054079199706248
-0.66075,-0.053060734114437
-0.6605,-0.057474085012284
-0.66025,-0.059171527665301
-0.66,-0.066300786807977
-0.65975,-0.066979763869184
-0.6595,-0.070035160644616
-0.65925,-0.067998229460995
-0.659,-0.070714137705823
-0.65875,-0.068677206522202
-0.6585,-0.071053626236427
-0.65825,-0.066979763869184
-0.658,-0.067319252399787
-0.65775,-0.061547947379527
-0.6575,-0.062566412971337
-0.65725,-0.056455619420473
-0.657,-0.057813573542887
-0.65675,-0.05238175705323
-0.6565,-0.054079199706248
-0.65625,-0.046949940563572
-0.656,-0.047968406155383
-0.65575,-0.042197101135122
-0.6555,-0.044234032318744
-0.65525,-0.039481192890294
-0.655,-0.040839147012708
-0.65475,-0.035746819053654
-0.6545,-0.037783750237276
-0.65425,-0.033030910808826
-0.654,-0.036086307584258
-0.65375,-0.032012445217015
-0.6535,-0.03438886493124
-0.65325,-0.029975514033393
-0.653,-0.032012445217015
-0.65275,-0.027259605788565
-0.6525,-0.028957048441583
-0.65225,-0.024543697543736
-0.652,-0.025562163135547
-0.65175,-0.021827789298907
-0.6515,-0.024204209013132
-0.65125,-0.020469835176493
-0.651,-0.024204209013132
-0.65075,-0.022846254890718
-0.6505,-0.027938582849772
-0.65025,-0.025222674604943
-0.65,-0.027938582849772
-0.64975,-0.021827789298907
-0.6495,-0.022506766360115
-0.64925,-0.018772392523475
-0.649,-0.022167277829511
-0.64875,-0.017753926931664
-0.6485,-0.022506766360115
-0.64825,-0.021488300768304
-0.648,-0.026920117257961
-0.64775,-0.026241140196754
-0.6475,-0.029975514033393
-0.64725,-0.029296536972186
-0.647,-0.033030910808826
-0.64675,-0.028957048441583
-0.6465,-0.028278071380375
-0.64625,-0.021488300768304
-0.646,-0.0211488122377
-0.64575,-0.017074949870457
-0.6455,-0.019111881054079
-0.64525,-0.016735461339854
-0.645,-0.019790858115286
-0.64475,-0.019111881054079
-0.6445,-0.023525231951925
-0.64425,-0.023525231951925
-0.644,-0.026920117257961
-0.64375,-0.027259605788565
-0.6435,-0.031672956686411
-0.64325,-0.035067841992447
-0.643,-0.040839147012708
-0.64275,-0.044573520849347
-0.6425,-0.048307894685987
-0.64225,-0.050684314400212
-0.642,-0.054418688236851
-0.64175,-0.055776642359266
-0.6415,-0.056116130889869
-0.64125,-0.055097665298058
-0.641,-0.056116130889869
-0.64075,-0.055776642359266
-0.6405,-0.057474085012284
-0.64025,-0.059171527665301
-0.64,-0.063924367093752
-0.63975,-0.065282321216166
-0.6395,-0.06664027533858
-0.63925,-0.065961298277373
-0.639,-0.066300786807977
-0.63875,-0.066979763869184
-0.6385,-0.06664027533858
-0.63825,-0.065961298277373
-0.638,-0.063924367093752
-0.63775,-0.062566412971337
-0.6375,-0.061208458848923
-0.63725,-0.060529481787716
-0.637,-0.059171527665301
-0.63675,-0.058492550604094
-0.6365,-0.054758176767455
-0.63625,-0.05238175705323
-0.636,-0.047289429094176
-0.63575,-0.045931474971762
-0.6355,-0.042197101135122
-0.63525,-0.041857612604519
-0.635,-0.03914170435969
-0.63475,-0.039481192890294
-0.6345,-0.036425796114861
-0.63425,-0.037444261706672
-0.634,-0.03438886493124
-0.63375,-0.035746819053654
-0.6335,-0.034049376400636
-0.63325,-0.035407330523051
-0.633,-0.033030910808826
-0.63275,-0.033709887870033
-0.6325,-0.02963602550279
-0.63225,-0.031333468155808
-0.632,-0.028278071380375
-0.63175,-0.031333468155808
-0.6315,-0.02963602550279
-0.63125,-0.031672956686411
-0.631,-0.028957048441583
-0.63075,-0.030993979625204
-0.6305,-0.026580628727358
-0.63025,-0.026580628727358
-0.63,-0.021827789298907
-0.62975,-0.022167277829511
-0.6295,-0.020130346645889
-0.62925,-0.022846254890718
-0.629,-0.022506766360115
-0.62875,-0.025562163135547
-0.6285,-0.023864720482529
-0.62825,-0.027259605788565
-0.628,-0.027259605788565
-0.62775,-0.032012445217015
-0.6275,-0.031333468155808
-0.62725,-0.034728353461844
-0.627,-0.03438886493124
-0.62675,-0.036425796114861
-0.6265,-0.035067841992447
-0.62625,-0.03438886493124
-0.626,-0.032351933747618
-0.62575,-0.02963602550279
-0.6255,-0.026241140196754
-0.62525,-0.026580628727358
-0.625,-0.026241140196754
-0.62475,-0.02963602550279
-0.6245,-0.029296536972186
-0.62425,-0.033370399339429
-0.624,-0.034728353461844
-0.62375,-0.03914170435969
-0.6235,-0.038123238767879
-0.62325,-0.040160169951501
-0.623,-0.03914170435969
-0.62275,-0.040499658482104
-0.6225,-0.039820681420897
-0.62225,-0.042536589665726
-0.622,-0.041518124073915
-0.62175,-0.044573520849347
-0.6215,-0.043215566726933
-0.62125,-0.045252497910555
-0.621,-0.04389454378814
-0.62075,-0.045591986441158
-0.6205,-0.045931474971762
-0.62025,-0.049326360277798
-0.62,-0.051363291461419
-0.61975,-0.053400222645041
-0.6195,-0.05238175705323
-0.61925,-0.05238175705323
-0.619,-0.051702779992023
-0.61875,-0.053400222645041
-0.6185,-0.056116130889869
-0.61825,-0.058832039134698
-0.618,-0.060529481787716
-0.61775,-0.060189993257112
-0.6175,-0.059850504726509
-0.61725,-0.057474085012284
-0.617,-0.05713459648168
-0.61675,-0.053400222645041
-0.6165,-0.050344825869608
-0.61625,-0.044234032318744
-0.616,-0.039481192890294
-0.61575,-0.034728353461844
-0.6155,-0.034049376400636
-0.61525,-0.031672956686411
-0.615,-0.032351933747618
-0.61475,-0.029296536972186
-0.6145,-0.028617559910979
-0.61425,-0.024204209013132
-0.614,-0.022846254890718
-0.61375,-0.019451369584682
-0.6135,-0.020130346645889
-0.61325,-0.018093415462268
-0.613,-0.019451369584682
-0.61275,-0.018093415462268
-0.6125,-0.020130346645889
-0.61225,-0.018432903992872
-0.612,-0.019451369584682
-0.61175,-0.017753926931664
-0.6115,-0.018432903992872
-0.61125,-0.015716995748043
-0.611,-0.016735461339854
-0.61075,-0.015038018686836
-0.6105,-0.017414438401061
-0.61025,-0.01639597280925
-0.61,-0.017753926931664
-0.60975,-0.013340576033818
-0.6095,-0.015716995748043
-0.60925,-0.013340576033818
-0.609,-0.017414438401061
-0.60875,-0.014359041625629
-0.6085,-0.017074949870457
-0.60825,-0.013680064564421
-0.608,-0.017074949870457
-0.60775,-0.013340576033818
-0.6075,-0.016056484278646
-0.60725,-0.012322110442007
-0.607,-0.015377507217439
-0.60675,-0.012661598972611
-0.6065,-0.017414438401061
-0.60625,-0.014698530156232
-0.606,-0.018093415462268
-0.60575,-0.01639597280925
-0.6055,-0.0211488122377
-0.60525,-0.018432903992872
-0.605,-0.022846254890718
-0.60475,-0.020809323707097
-0.6045,-0.026241140196754
-0.60425,-0.023525231951925
-0.604,-0.028957048441583
-0.60375,-0.027259605788565
-0.6035,-0.032691422278222
-0.60325,-0.033030910808826
-0.603,-0.040499658482104
-0.60275,-0.040839147012708
-0.6025,-0.049326360277798
-0.60225,-0.050005337339005
-0.602,-0.058492550604094
-0.60175,-0.057474085012284
-0.6015,-0.060868970318319
-0.60125,-0.057813573542887
-0.601,-0.059850504726509
-0.60075,-0.055776642359266
-0.6005,-0.058492550604094
-0.60025,-0.056455619420473
-0.6,-0.065282321216166
-0.59975,-0.062226924440734
-0.5995,-0.065282321216166
-0.59925,-0.057474085012284
-0.599,-0.060529481787716
-0.59875,-0.057813573542887
-0.5985,-0.06188743591013
-0.59825,-0.059511016195905
-0.598,-0.061208458848923
-0.59775,-0.05713459648168
-0.5975,-0.058492550604094
-0.59725,-0.053400222645041
-0.597,-0.055437153828662
-0.59675,-0.050684314400212
-0.5965,-0.051023802930815
-0.59625,-0.045591986441158
-0.596,-0.045252497910555
-0.59575,-0.040499658482104
-0.5955,-0.040839147012708
-0.59525,-0.036765284645465
-0.595,-0.037783750237276
-0.59475,-0.035746819053654
-0.5945,-0.037783750237276
-0.59425,-0.035407330523051
-0.594,-0.035746819053654
-0.59375,-0.032351933747618
-0.5935,-0.032351933747618
-0.59325,-0.02963602550279
-0.593,-0.028278071380375
-0.59275,-0.02590165166615
-0.5925,-0.02488318607434
-0.59225,-0.023525231951925
-0.592,-0.023525231951925
-0.59175,-0.021488300768304
-0.5915,-0.020809323707097
-0.59125,-0.019111881054079
-0.591,-0.018772392523475
-0.59075,-0.017414438401061
-0.5905,-0.01639597280925
-0.59025,-0.015038018686836
-0.59,-0.014698530156232
-0.58975,-0.013680064564421
-0.5895,-0.015377507217439
-0.58925,-0.016056484278646
-0.589,-0.017753926931664
-0.58875,-0.018093415462268
-0.5885,-0.016735461339854
-0.58825,-0.016735461339854
-0.588,-0.01639597280925
-0.58775,-0.017074949870457
-0.5875,-0.017074949870457
-0.58725,-0.018093415462268
-0.587,-0.018093415462268
-0.58675,-0.019790858115286
-0.5865,-0.018432903992872
-0.58625,-0.017753926931664
-0.586,-0.014359041625629
-0.58575,-0.014698530156232
-0.5855,-0.013340576033818
-0.58525,-0.015377507217439
-0.585,-0.015038018686836
-0.58475,-0.018772392523475
-0.5845,-0.020469835176493
-0.58425,-0.025562163135547
-0.584,-0.026580628727358
-0.58375,-0.029975514033393
-0.5835,-0.028278071380375
-0.58325,-0.031672956686411
-0.583,-0.032012445217015
-0.58275,-0.037444261706672
-0.5825,-0.038802215829087
-0.58225,-0.043555055257537
-0.582,-0.04287607819633
-0.58175,-0.046949940563572
-0.5815,-0.044573520849347
-0.58125,-0.04762891762478
-0.581,-0.044913009379951
-0.58075,-0.048307894685987
-0.5805,-0.047289429094176
-0.58025,-0.05238175705323
-0.58,-0.053739711175644
-0.57975,-0.057474085012284
-0.5795,-0.055776642359266
-0.57925,-0.057813573542887
-0.579,-0.055097665298058
-0.57875,-0.05713459648168
-0.5785,-0.053739711175644
-0.57825,-0.055776642359266
-0.578,-0.051363291461419
-0.57775,-0.050344825869608
-0.5775,-0.046270963502365
-0.57725,-0.045591986441158
-0.577,-0.04287607819633
-0.57675,-0.042536589665726
-0.5765,-0.03914170435969
-0.57625,-0.039820681420897
-0.576,-0.036086307584258
-0.57575,-0.035407330523051
-0.5755,-0.030654491094601
-0.57525,-0.032351933747618
-0.575,-0.030315002563997
-0.57475,-0.032012445217015
-0.5745,-0.029296536972186
-0.57425,-0.029975514033393
-0.574,-0.027938582849772
-0.57375,-0.028617559910979
-0.5735,-0.025562163135547
-0.57325,-0.025562163135547
-0.573,-0.022846254890718
-0.57275,-0.024204209013132
-0.5725,-0.022167277829511
-0.57225,-0.022506766360115
-0.572,-0.018432903992872
-0.57175,-0.016735461339854
-0.5715,-0.013001087503214
-0.57125,-0.012661598972611
-0.571,-0.011303644850196
-0.57075,-0.013340576033818
-0.5705,-0.014019553095025
-0.57025,-0.015377507217439
-0.57,-0.014019553095025
-0.56975,-0.012661598972611
-0.5695,-0.0116431333808
-0.56925,-0.011982621911403
-0.569,-0.013340576033818
-0.56875,-0.013680064564421
-0.5685,-0.014359041625629
-0.56825,-0.015038018686836
-0.568,-0.017414438401061
-0.56775,-0.018093415462268
-0.5675,-0.019790858115286
-0.56725,-0.020469835176493
-0.567,-0.022846254890718
-0.56675,-0.023525231951925
-0.5665,-0.024204209013132
-0.56625,-0.0211488122377
-0.566,-0.021488300768304
-0.56575,-0.0211488122377
-0.5655,-0.023864720482529
-0.56525,-0.022506766360115
-0.565,-0.024204209013132
-0.56475,-0.023185743421322
-0.5645,-0.026920117257961
-0.56425,-0.026920117257961
-0.564,-0.030993979625204
-0.56375,-0.031333468155808
-0.5635,-0.035746819053654
-0.56325,-0.036425796114861
-0.563,-0.03914170435969
-0.56275,-0.038802215829087
-0.5625,-0.042197101135122
-0.56225,-0.042536589665726
-0.562,-0.047289429094176
-0.56175,-0.047968406155383
-0.5615,-0.049665848808401
-0.56125,-0.047289429094176
-0.561,-0.047968406155383
-0.56075,-0.045591986441158
-0.5605,-0.04762891762478
-0.56025,-0.04864738321659
-0.56,-0.054758176767455
-0.55975,-0.053739711175644
-0.5595,-0.057474085012284
-0.55925,-0.054758176767455
-0.559,-0.058153062073491
-0.55875,-0.05713459648168
-0.5585,-0.061547947379527
-0.55825,-0.059511016195905
-0.558,-0.062226924440734
-0.55775,-0.058153062073491
-0.5575,-0.060189993257112
-0.55725,-0.054079199706248
-0.557,-0.054418688236851
-0.55675,-0.047968406155383
-0.5565,-0.048986871747194
-0.55625,-0.04287607819633
-0.556,-0.045252497910555
-0.55575,-0.040160169951501
-0.5555,-0.042536589665726
-0.55525,-0.039820681420897
-0.555,-0.040499658482104
-0.55475,-0.035746819053654
-0.5545,-0.037444261706672
-0.55425,-0.031672956686411
-0.554,-0.034728353461844
-0.55375,-0.030315002563997
-0.5535,-0.033370399339429
-0.55325,-0.02963602550279
-0.553,-0.030654491094601
-0.55275,-0.024204209013132
-0.5525,-0.023185743421322
-0.55225,-0.016056484278646
-0.552,-0.014698530156232
-0.55175,-0.008248248074764
-0.5515,-0.009945690727782
-0.55125,-0.006550805421746
-0.551,-0.009606202197178
-0.55075,-0.006550805421746
-0.5505,-0.010285179258386
-0.55025,-0.007569271013557
-0.55,-0.011982621911403
-0.54975,-0.008927225135971
-0.5495,-0.015377507217439
-0.54925,-0.013340576033818
-0.549,-0.018432903992872
-0.54875,-0.014698530156232
-0.5485,-0.015716995748043
-0.54825,-0.010624667788989
-0.548,-0.012322110442007
-0.54775,-0.008927225135971
-0.5475,-0.012322110442007
-0.54725,-0.011303644850196
-0.547,-0.016056484278646
-0.54675,-0.014359041625629
-0.5465,-0.016735461339854
-0.54625,-0.013001087503214
-0.546,-0.013680064564421
-0.54575,-0.011982621911403
-0.5455,-0.01639597280925
-0.54525,-0.01639597280925
-0.545,-0.020130346645889
-0.54475,-0.019790858115286
-0.5445,-0.021827789298907
-0.54425,-0.020469835176493
-0.544,-0.022167277829511
-0.54375,-0.0211488122377
-0.5435,-0.024543697543736
-0.54325,-0.02590165166615
-0.543,-0.029975514033393
-0.54275,-0.032691422278222
-0.5425,-0.036086307584258
-0.54225,-0.038123238767879
-0.542,-0.042197101135122
-0.54175,-0.044234032318744
-0.5415,-0.045931474971762
-0.54125,-0.046270963502365
-0.541,-0.047968406155383
-0.54075,-0.048307894685987
-0.5405,-0.049326360277798
-0.54025,-0.050344825869608
-0.54,-0.054079199706248
-0.53975,-0.054079199706248
-0.5395,-0.054758176767455
-0.53925,-0.054079199706248
-0.539,-0.054758176767455
-0.53875,-0.055776642359266
-0.5385,-0.05713459648168
-0.53825,-0.057813573542887
-0.538,-0.057474085012284
-0.53775,-0.05713459648168
-0.5375,-0.056116130889869
-0.53725,-0.055437153828662
-0.537,-0.054418688236851
-0.53675,-0.054079199706248
-0.5365,-0.050684314400212
-0.53625,-0.047968406155383
-0.536,-0.043555055257537
-0.53575,-0.041178635543312
-0.5355,-0.036765284645465
-0.53525,-0.035746819053654
-0.535,-0.032351933747618
-0.53475,-0.032012445217015
-0.5345,-0.028278071380375
-0.53425,-0.028617559910979
-0.534,-0.02590165166615
-0.53375,-0.027259605788565
-0.5335,-0.024543697543736
-0.53325,-0.025562163135547
-0.533,-0.022167277829511
-0.53275,-0.023185743421322
-0.5325,-0.020130346645889
-0.53225,-0.021488300768304
-0.532,-0.017753926931664
-0.53175,-0.020130346645889
-0.5315,-0.018093415462268
-0.53125,-0.019111881054079
-0.531,-0.016735461339854
-0.53075,-0.019111881054079
-0.5305,-0.016735461339854
-0.53025,-0.018432903992872
-0.53,-0.015038018686836
-0.52975,-0.017414438401061
-0.5295,-0.016056484278646
-0.52925,-0.019111881054079
-0.529,-0.015716995748043
-0.52875,-0.017414438401061
-0.5285,-0.016056484278646
-0.52825,-0.020130346645889
-0.528,-0.0211488122377
-0.52775,-0.026580628727358
-0.5275,-0.027259605788565
-0.52725,-0.030993979625204
-0.527,-0.030315002563997
-0.52675,-0.033030910808826
-0.5265,-0.031672956686411
-0.52625,-0.031333468155808
-0.526,-0.027938582849772
-0.52575,-0.028957048441583
-0.5255,-0.027599094319168
-0.52525,-0.028617559910979
-0.525,-0.027938582849772
-0.52475,-0.030654491094601
-0.5245,-0.030993979625204
-0.52425,-0.033709887870033
-0.524,-0.033370399339429
-0.52375,-0.034728353461844
-0.5235,-0.033709887870033
-0.52325,-0.036425796114861
-0.523,-0.037444261706672
-0.52275,-0.042536589665726
-0.5225,-0.043555055257537
-0.52225,-0.046610452032969
-0.522,-0.04762891762478
-0.52175,-0.051023802930815
-0.5215,-0.050344825869608
-0.52125,-0.052042268522626
-0.521,-0.050684314400212
-0.52075,-0.051702779992023
-0.5205,-0.050684314400212
-0.52025,-0.05238175705323
-0.52,-0.054079199706248
-0.51975,-0.055437153828662
-0.5195,-0.055776642359266
-0.51925,-0.056116130889869
-0.519,-0.05713459648168
-0.51875,-0.058153062073491
-0.5185,-0.058153062073491
-0.51825,-0.056455619420473
-0.518,-0.054758176767455
-0.51775,-0.052721245583833
-0.5175,-0.052042268522626
-0.51725,-0.050005337339005
-0.517,-0.051363291461419
-0.51675,-0.050005337339005
-0.5165,-0.050005337339005
-0.51625,-0.046949940563572
-0.516,-0.045931474971762
-0.51575,-0.041857612604519
-0.5155,-0.040499658482104
-0.51525,-0.036765284645465
-0.515,-0.036425796114861
-0.51475,-0.033370399339429
-0.5145,-0.03438886493124
-0.51425,-0.031333468155808
-0.514,-0.032691422278222
-0.51375,-0.030315002563997
-0.5135,-0.030993979625204
-0.51325,-0.028278071380375
-0.513,-0.027938582849772
-0.51275,-0.023185743421322
-0.5125,-0.020809323707097
-0.51225,-0.015716995748043
-0.512,-0.014698530156232
-0.51175,-0.0116431333808
-0.5115,-0.013680064564421
-0.51125,-0.012661598972611
-0.511,-0.015038018686836
-0.51075,-0.013340576033818
-0.5105,-0.015716995748043
-0.51025,-0.013340576033818
-0.51,-0.015377507217439
-0.50975,-0.011982621911403
-0.5095,-0.015038018686836
-0.50925,-0.013340576033818
-0.509,-0.017074949870457
-0.50875,-0.014698530156232
-0.5085,-0.018432903992872
-0.50825,-0.015716995748043
-0.508,-0.020130346645889
-0.50775,-0.019790858115286
-0.5075,-0.022506766360115
-0.50725,-0.019451369584682
-0.507,-0.023525231951925
-0.50675,-0.020469835176493
-0.5065,-0.023864720482529
-0.50625,-0.019111881054079
-0.506,-0.024204209013132
-0.50575,-0.020469835176493
-0.5055,-0.02488318607434
-0.50525,-0.019111881054079
-0.505,-0.023864720482529
-0.50475,-0.021827789298907
-0.5045,-0.028278071380375
-0.50425,-0.027599094319168
-0.504,-0.03438886493124
-0.50375,-0.03438886493124
-0.5035,-0.041178635543312
-0.50325,-0.041178635543312
-0.503,-0.048307894685987
-0.50275,-0.047968406155383
-0.5025,-0.055437153828662
-0.50225,-0.056116130889869
-0.502,-0.063584878563148
-0.50175,-0.064942832685562
-0.5015,-0.069016695052805
-0.50125,-0.065282321216166
-0.501,-0.066979763869184
-0.50075,-0.061547947379527
-0.5005,-0.063584878563148
-0.50025,-0.060529481787716
-0.5,-0.06664027533858
-0.49975,-0.064603344154959
-0.4995,-0.068337717991598
-0.49925,-0.064263855624355
-0.499,-0.066979763869184
-0.49875,-0.063245390032544
-0.4985,-0.064603344154959
-0.49825,-0.058153062073491
-0.498,-0.058492550604094
-0.49775,-0.053060734114437
-0.4975,-0.054079199706248
-0.49725,-0.049326360277798
-0.497,-0.051023802930815
-0.49675,-0.046949940563572
-0.4965,-0.048307894685987
-0.49625,-0.044234032318744
-0.496,-0.043555055257537
-0.49575,-0.039481192890294
-0.4955,-0.039820681420897
-0.49525,-0.035746819053654
-0.495,-0.036086307584258
-0.49475,-0.032691422278222
-0.4945,-0.033709887870033
-0.49425,-0.031333468155808
-0.494,-0.033370399339429
-0.49375,-0.032012445217015
-0.4935,-0.033030910808826
-0.49325,-0.031333468155808
-0.493,-0.031672956686411
-0.49275,-0.02963602550279
-0.4925,-0.029296536972186
-0.49225,-0.028278071380375
-0.492,-0.028617559910979
-0.49175,-0.027938582849772
-0.4915,-0.028617559910979
-0.49125,-0.028278071380375
-0.491,-0.028957048441583
-0.49075,-0.028617559910979
-0.4905,-0.027938582849772
-0.49025,-0.02590165166615
-0.49,-0.02488318607434
-0.48975,-0.023525231951925
-0.4895,-0.025562163135547
-0.48925,-0.026580628727358
-0.489,-0.028278071380375
-0.48875,-0.02963602550279
-0.4885,-0.029975514033393
-0.48825,-0.02963602550279
-0.488,-0.027599094319168
-0.48775,-0.026241140196754
-0.4875,-0.02488318607434
-0.48725,-0.023864720482529
-0.487,-0.020809323707097
-0.48675,-0.020130346645889
-0.4865,-0.015716995748043
-0.48625,-0.012322110442007
-0.486,-0.00790875954416
-0.48575,-0.010285179258386
-0.4855,-0.010285179258386
-0.48525,-0.013001087503214
-0.485,-0.012322110442007
-0.48475,-0.013680064564421
-0.4845,-0.012322110442007
-0.48425,-0.015038018686836
-0.484,-0.014359041625629
-0.48375,-0.018772392523475
-0.4835,-0.0211488122377
-0.48325,-0.025562163135547
-0.483,-0.027599094319168
-0.48275,-0.03438886493124
-0.4825,-0.037444261706672
-0.48225,-0.044913009379951
-0.482,-0.046610452032969
-0.48175,-0.052721245583833
-0.4815,-0.055776642359266
-0.48125,-0.059850504726509
-0.481,-0.058832039134698
-0.48075,-0.059171527665301
-0.4805,-0.058153062073491
-0.48025,-0.06188743591013
-0.48,-0.061208458848923
-0.47975,-0.063245390032544
-0.4795,-0.061208458848923
-0.47925,-0.063245390032544
-0.479,-0.060868970318319
-0.47875,-0.062226924440734
-0.4785,-0.057813573542887
-0.47825,-0.055776642359266
-0.478,-0.048986871747194
-0.47775,-0.046949940563572
-0.4775,-0.041518124073915
-0.47725,-0.040839147012708
-0.477,-0.038123238767879
-0.47675,-0.037783750237276
-0.4765,-0.034049376400636
-0.47625,-0.033709887870033
-0.476,-0.030993979625204
-0.47575,-0.031672956686411
-0.4755,-0.028957048441583
-0.47525,-0.02963602550279
-0.475,-0.027599094319168
-0.47475,-0.027938582849772
-0.4745,-0.025222674604943
-0.47425,-0.023864720482529
-0.474,-0.0211488122377
-0.47375,-0.020469835176493
-0.4735,-0.016735461339854
-0.47325,-0.01639597280925
-0.473,-0.012661598972611
-0.47275,-0.012661598972611
-0.4725,-0.009266713666575
-0.47225,-0.008927225135971
-0.472,-0.006550805421746
-0.47175,-0.00790875954416
-0.4715,-0.00790875954416
-0.47125,-0.010624667788989
-0.471,-0.0116431333808
-0.47075,-0.014698530156232
-0.4705,-0.014698530156232
-0.47025,-0.014359041625629
-0.47,-0.012661598972611
-0.46975,-0.010964156319593
-0.4695,-0.009945690727782
-0.46925,-0.009606202197178
-0.469,-0.010285179258386
-0.46875,-0.009945690727782
-0.4685,-0.010964156319593
-0.46825,-0.0116431333808
-0.468,-0.014019553095025
-0.46775,-0.015716995748043
-0.4675,-0.018093415462268
-0.46725,-0.018093415462268
-0.467,-0.019790858115286
-0.46675,-0.019790858115286
-0.4665,-0.022846254890718
-0.46625,-0.022846254890718
-0.466,-0.026580628727358
-0.46575,-0.027259605788565
-0.4655,-0.030654491094601
-0.46525,-0.02963602550279
-0.465,-0.031333468155808
-0.46475,-0.02963602550279
-0.4645,-0.030993979625204
-0.46425,-0.027599094319168
-0.464,-0.028278071380375
-0.46375,-0.024204209013132
-0.4635,-0.024204209013132
-0.46325,-0.022167277829511
-0.463,-0.02488318607434
-0.46275,-0.024543697543736
-0.4625,-0.028617559910979
-0.46225,-0.028278071380375
-0.462,-0.032012445217015
-0.46175,-0.031333468155808
-0.4615,-0.033370399339429
-0.46125,-0.031672956686411
-0.461,-0.03438886493124
-0.46075,-0.032351933747618
-0.4605,-0.035746819053654
-0.46025,-0.036086307584258
-0.46,-0.042536589665726
-0.45975,-0.040839147012708
-0.4595,-0.04389454378814
-0.45925,-0.042197101135122
-0.459,-0.043215566726933
-0.45875,-0.039820681420897
-0.4585,-0.042197101135122
-0.45825,-0.038123238767879
-0.458,-0.039820681420897
-0.45775,-0.035746819053654
-0.4575,-0.038462727298483
-0.45725,-0.035407330523051
-0.457,-0.040160169951501
-0.45675,-0.034728353461844
-0.4565,-0.035407330523051
-0.45625,-0.027259605788565
-0.456,-0.027599094319168
-0.45575,-0.020469835176493
-0.4555,-0.020809323707097
-0.45525,-0.015038018686836
-0.455,-0.01639597280925
-0.45475,-0.011982621911403
-0.4545,-0.015716995748043
-0.45425,-0.011982621911403
-0.454,-0.01639597280925
-0.45375,-0.012322110442007
-0.4535,-0.015038018686836
-0.45325,-0.008587736605368
-0.453,-0.007569271013557
-0.45275,-0.000779500401485
-0.4525,-0.0021374545239
-0.45225,0.001936407843344
-0.452,-0.001118988932089
-0.45175,0.00159691931274
-0.4515,-0.002816431585107
-0.45125,-0.000100523340278
-0.451,-0.004513874238125
-0.45075,-0.001118988932089
-0.4505,-0.003834897176917
-0.45025,0.002615384904551
-0.45,0.003294361965758
-0.44975,0.010423621108433
-0.4495,0.008386689924812
-0.44925,0.013139529353262
-0.449,0.01008413257783
-0.44875,0.013818506414469
-0.4485,0.01110259816964
-0.44825,0.014497483475676
-0.448,0.010423621108433
-0.44775,0.012800040822658
-0.4475,0.008047201394208
-0.44725,0.010423621108433
-0.447,0.006010270210586
-0.44675,0.006010270210586
-0.4465,0.00159691931274
-0.44625,0.003294361965758
-0.446,0.000238965190326
-0.44575,0.001936407843344
-0.4455,0.000238965190326
-0.44525,0.002615384904551
-0.445,0.000917942251533
-0.44475,0.001936407843344
-0.4445,-0.0021374545239
-0.44425,-0.0021374545239
-0.444,-0.004853362768728
-0.44375,-0.005871828360539
-0.4435,-0.009945690727782
-0.44325,-0.011982621911403
-0.443,-0.015716995748043
-0.44275,-0.017074949870457
-0.4425,-0.020130346645889
-0.44225,-0.022167277829511
-0.442,-0.02590165166615
-0.44175,-0.026920117257961
-0.4415,-0.027599094319168
-0.44125,-0.027259605788565
-0.441,-0.026920117257961
-0.44075,-0.02590165166615
-0.4405,-0.026920117257961
-0.44025,-0.029296536972186
-0.44,-0.033030910808826
-0.43975,-0.03438886493124
-0.4395,-0.035067841992447
-0.43925,-0.034728353461844
-0.439,-0.034728353461844
-0.43875,-0.035067841992447
-0.4385,-0.033709887870033
-0.43825,-0.031672956686411
-0.438,-0.028957048441583
-0.43775,-0.026580628727358
-0.4375,-0.023525231951925
-0.43725,-0.021827789298907
-0.437,-0.019790858115286
-0.43675,-0.019111881054079
-0.4365,-0.014698530156232
-0.43625,-0.012661598972611
-0.436,-0.008587736605368
-0.43575,-0.00790875954416
-0.4355,-0.004853362768728
-0.43525,-0.005532339829935
-0.435,-0.0021374545239
-0.43475,-0.003495408646314
-0.4345,-0.000100523340278
-0.43425,-0.000779500401485
-0.434,0.002954873435154
-0.43375,0.002954873435154
-0.4335,0.006689247271794
-0.43325,0.006010270210586
-0.433,0.01008413257783
-0.43275,0.008386689924812
-0.4325,0.011781575230847
-0.43225,0.010423621108433
-0.432,0.014157994945073
-0.43175,0.012800040822658
-0.4315,0.015176460536883
-0.43125,0.013139529353262
-0.431,0.015515949067487
-0.43075,0.012460552292055
-0.4305,0.014497483475676
-0.43025,0.012800040822658
-0.43,0.016873903189901
-0.42975,0.01585543759809
-0.4295,0.016873903189901
-0.42925,0.014497483475676
-0.429,0.01585543759809
-0.42875,0.013818506414469
-0.4285,0.016873903189901
-0.42825,0.01585543759809
-0.428,0.017213391720505
-0.42775,0.013818506414469
-0.4275,0.017552880251108
-0.42725,0.016194926128694
-0.427,0.017552880251108
-0.42675,0.014157994945073
-0.4265,0.014157994945073
-0.42625,0.013479017883865
-0.426,0.015515949067487
-0.42575,0.011442086700244
-0.4255,0.011781575230847
-0.42525,0.009065666986019
-0.425,0.010763109639037
-0.42475,0.007028735802397
-0.4245,0.004652316088172
-0.42425,0.000238965190326
-0.424,-0.001797965993296
-0.42375,-0.006550805421746
-0.4235,-0.008587736605368
-0.42325,-0.012322110442007
-0.423,-0.013001087503214
-0.42275,-0.015038018686836
-0.4225,-0.014698530156232
-0.42225,-0.015377507217439
-0.422,-0.015038018686836
-0.42175,-0.017414438401061
-0.4215,-0.016735461339854
-0.42125,-0.018432903992872
-0.421,-0.018432903992872
-0.42075,-0.019790858115286
-0.4205,-0.020469835176493
-0.42025,-0.023864720482529
-0.42,-0.026920117257961
-0.41975,-0.02963602550279
-0.4195,-0.031333468155808
-0.41925,-0.032012445217015
-0.419,-0.033030910808826
-0.41875,-0.032351933747618
-0.4185,-0.032351933747618
-0.41825,-0.030654491094601
-0.418,-0.030654491094601
-0.41775,-0.027599094319168
-0.4175,-0.026580628727358
-0.41725,-0.023185743421322
-0.417,-0.022167277829511
-0.41675,-0.017753926931664
-0.4165,-0.014698530156232
-0.41625,-0.008248248074764
-0.416,-0.005871828360539
-0.41575,0.000238965190326
-0.4155,0.003294361965758
-0.41525,0.008726178455415
-0.415,0.008726178455415
-0.41475,0.009744644047226
-0.4145,0.008047201394208
-0.41425,0.010763109639037
-0.414,0.008726178455415
-0.41375,0.011781575230847
-0.4135,0.009744644047226
-0.41325,0.012121063761451
-0.413,0.011442086700244
-0.41275,0.015515949067487
-0.4125,0.01483697200628
-0.41225,0.017892368781712
-0.412,0.016194926128694
-0.41175,0.018231857312316
-0.4115,0.01483697200628
-0.41125,0.016194926128694
-0.411,0.013139529353262
-0.41075,0.015176460536883
-0.4105,0.013479017883865
-0.41025,0.016873903189901
-0.41,0.016194926128694
-0.40975,0.020947765557144
-0.4095,0.017892368781712
-0.40925,0.021626742618351
-0.409,0.019929299965333
-0.40875,0.023663673801973
-0.4085,0.020608277026541
-0.40825,0.02434265086318
-0.408,0.020268788495937
-0.40775,0.022984696740766
-0.4075,0.018571345842919
-0.40725,0.021966231148955
-0.407,0.016873903189901
-0.40675,0.019250322904126
-0.4065,0.014497483475676
-0.40625,0.018231857312316
-0.406,0.013818506414469
-0.40575,0.015515949067487
-0.4055,0.010423621108433
-0.40525,0.013479017883865
-0.405,0.009405155516622
-0.40475,0.012121063761451
-0.4045,0.007028735802397
-0.40425,0.009405155516622
-0.404,0.002954873435154
-0.40375,0.002954873435154
-0.4035,-0.003495408646314
-0.40325,-0.003495408646314
-0.403,-0.009266713666575
-0.40275,-0.008248248074764
-0.4025,-0.014019553095025
-0.40225,-0.012322110442007
-0.402,-0.018093415462268
-0.40175,-0.016735461339854
-0.4015,-0.020809323707097
-0.40125,-0.019451369584682
-0.401,-0.023864720482529
-0.40075,-0.022846254890718
-0.4005,-0.027938582849772
-0.40025,-0.027259605788565
-0.4,-0.032691422278222
-0.39975,-0.027938582849772
-0.3995,-0.029296536972186
-0.39925,-0.023525231951925
-0.399,-0.026580628727358
-0.39875,-0.023864720482529
-0.3985,-0.027599094319168
-0.39825,-0.02488318607434
-0.398,-0.029296536972186
-0.39775,-0.023525231951925
-0.3975,-0.026241140196754
-0.39725,-0.021827789298907
-0.397,-0.022846254890718
-0.39675,-0.017414438401061
-0.3965,-0.017074949870457
-0.39625,-0.014698530156232
-0.396,-0.014359041625629
-0.39575,-0.009945690727782
-0.3955,-0.00689029395235
-0.39525,-0.003834897176917
-0.395,-0.003495408646314
-0.39475,-0.000779500401485
-0.3945,-0.0021374545239
-0.39425,-0.000100523340278
-0.394,-0.001118988932089
-0.39375,0.000578453720929
-0.3935,0.001257430782136
-0.39325,0.003633850496361
-0.393,0.003294361965758
-0.39275,0.004312827557569
-0.3925,0.003633850496361
-0.39225,0.004652316088172
-0.392,0.004991804618776
-0.39175,0.006689247271794
-0.3915,0.009065666986019
-0.39125,0.012800040822658
-0.391,0.016534414659298
-0.39075,0.020268788495937
-0.3905,0.023324185271369
-0.39025,0.027737536169216
-0.39,0.031132421475252
-0.38975,0.034527306781288
-0.3895,0.034866795311891
-0.38925,0.034187818250684
-0.389,0.033169352658873
-0.38875,0.031132421475252
-0.3885,0.028756001761027
-0.38825,0.025361116454991
-0.388,0.023324185271369
-0.38775,0.020947765557144
-0.3875,0.019929299965333
-0.38725,0.018910834373523
-0.387,0.01958981143473
-0.38675,0.017892368781712
-0.3865,0.020268788495937
-0.38625,0.020947765557144
-0.386,0.022984696740766
-0.38575,0.019929299965333
-0.3855,0.019250322904126
-0.38525,0.01585543759809
-0.385,0.015515949067487
-0.38475,0.012121063761451
-0.3845,0.011781575230847
-0.38425,0.008726178455415
-0.384,0.009065666986019
-0.38375,0.005670781679983
-0.3835,0.005331293149379
-0.38325,0.000238965190326
-0.383,-0.000779500401485
-0.38275,-0.00689029395235
-0.3825,-0.007229782482953
-0.38225,-0.0116431333808
-0.382,-0.011982621911403
-0.38175,-0.016735461339854
-0.3815,-0.015038018686836
-0.38125,-0.018432903992872
-0.381,-0.017074949870457
-0.38075,-0.019451369584682
-0.3805,-0.018432903992872
-0.38025,-0.022167277829511
-0.38,-0.022506766360115
-0.37975,-0.024543697543736
-0.3795,-0.023185743421322
-0.37925,-0.02590165166615
-0.379,-0.02488318607434
-0.37875,-0.028617559910979
-0.3785,-0.026580628727358
-0.37825,-0.026920117257961
-0.378,-0.022846254890718
-0.37775,-0.022506766360115
-0.3775,-0.018772392523475
-0.37725,-0.017414438401061
-0.377,-0.014019553095025
-0.37675,-0.013340576033818
-0.3765,-0.009266713666575
-0.37625,-0.00689029395235
-0.376,-0.003495408646314
-0.37575,-0.002816431585107
-0.3755,-0.000100523340278
-0.37525,-0.000440011870882
-0.375,0.00159691931274
-0.37475,0.000917942251533
-0.3745,0.002615384904551
-0.37425,0.003294361965758
-0.374,0.005331293149379
-0.37375,0.004312827557569
-0.3735,0.005331293149379
-0.37325,0.007028735802397
-0.373,0.009405155516622
-0.37275,0.009405155516622
-0.3725,0.011442086700244
-0.37225,0.01110259816964
-0.372,0.014157994945073
-0.37175,0.010763109639037
-0.3715,0.012121063761451
-0.37125,0.011781575230847
-0.371,0.01585543759809
-0.37075,0.01585543759809
-0.3705,0.016194926128694
-0.37025,0.016873903189901
-0.37,0.018910834373523
-0.36975,0.019929299965333
-0.3695,0.019250322904126
-0.36925,0.018910834373523
-0.369,0.017552880251108
-0.36875,0.018231857312316
-0.3685,0.017552880251108
-0.36825,0.017892368781712
-0.368,0.015515949067487
-0.36775,0.01585543759809
-0.3675,0.013818506414469
-0.36725,0.014497483475676
-0.367,0.012121063761451
-0.36675,0.012460552292055
-0.3665,0.010763109639037
-0.36625,0.013818506414469
-0.366,0.013139529353262
-0.36575,0.01483697200628
-0.3655,0.013479017883865
-0.36525,0.014497483475676
-0.365,0.01110259816964
-0.36475,0.010423621108433
-0.3645,0.005670781679983
-0.36425,0.005331293149379
-0.364,0.000578453720929
-0.36375,0.000917942251533
-0.3635,-0.001797965993296
-0.36325,-0.001458477462692
-0.363,-0.005192851299332
-0.36275,-0.006211316891142
-0.3625,-0.011303644850196
-0.36225,-0.013680064564421
-0.362,-0.020469835176493
-0.36175,-0.022167277829511
-0.3615,-0.026580628727358
-0.36125,-0.025222674604943
-0.361,-0.027259605788565
-0.36075,-0.023864720482529
-0.3605,-0.025562163135547
-0.36025,-0.024543697543736
-0.36,-0.028617559910979
-0.35975,-0.025562163135547
-0.3595,-0.027259605788565
-0.35925,-0.023525231951925
-0.359,-0.026241140196754
-0.35875,-0.023525231951925
-0.3585,-0.02590165166615
-0.35825,-0.020469835176493
-0.358,-0.023185743421322
-0.35775,-0.018093415462268
-0.3575,-0.021488300768304
-0.35725,-0.018432903992872
-0.357,-0.022846254890718
-0.35675,-0.018432903992872
-0.3565,-0.019790858115286
-0.35625,-0.013680064564421
-0.356,-0.015038018686836
-0.35575,-0.009266713666575
-0.3555,-0.010624667788989
-0.35525,-0.005871828360539
-0.355,-0.008248248074764
-0.35475,-0.003834897176917
-0.3545,-0.00689029395235
-0.35425,-0.004174385707521
-0.354,-0.008587736605368
-0.35375,-0.004853362768728
-0.3535,-0.004513874238125
-0.35325,0.003294361965758
-0.353,0.003973339026965
-0.35275,0.011442086700244
-0.3525,0.010763109639037
-0.35225,0.016194926128694
-0.352,0.014157994945073
-0.35175,0.017552880251108
-0.3515,0.014157994945073
-0.35125,0.016534414659298
-0.351,0.010423621108433
-0.35075,0.011442086700244
-0.3505,0.006689247271794
-0.35025,0.008386689924812
-0.35,0.004652316088172
-0.34975,0.006689247271794
-0.3495,0.00159691931274
-0.34925,0.006689247271794
-0.349,0.004991804618776
-0.34875,0.011442086700244
-0.3485,0.011442086700244
-0.34825,0.017213391720505
-0.348,0.015176460536883
-0.34775,0.016194926128694
-0.3475,0.010763109639037
-0.34725,0.011781575230847
-0.347,0.008386689924812
-0.34675,0.010423621108433
-0.3465,0.008047201394208
-0.34625,0.011781575230847
-0.346,0.011442086700244
-0.34575,0.013818506414469
-0.3455,0.013139529353262
-0.34525,0.014157994945073
-0.345,0.010763109639037
-0.34475,0.010423621108433
-0.3445,0.00634975874119
-0.34425,0.004652316088172
-0.344,-0.000779500401485
-0.34375,-0.003834897176917
-0.3435,-0.008587736605368
-0.34325,-0.011303644850196
-0.343,-0.015377507217439
-0.34275,-0.019451369584682
-0.3425,-0.023185743421322
-0.34225,-0.024204209013132
-0.342,-0.025222674604943
-0.34175,-0.024204209013132
-0.3415,-0.022506766360115
-0.34125,-0.019451369584682
-0.341,-0.017753926931664
-0.34075,-0.016735461339854
-0.3405,-0.017753926931664
-0.34025,-0.019111881054079
-0.34,-0.020809323707097
-0.33975,-0.019111881054079
-0.3395,-0.016735461339854
-0.33925,-0.014359041625629
-0.339,-0.013680064564421
-0.33875,-0.014359041625629
-0.3385,-0.014698530156232
-0.33825,-0.01639597280925
-0.338,-0.018093415462268
-0.33775,-0.019790858115286
-0.3375,-0.019111881054079
-0.33725,-0.018772392523475
-0.337,-0.015377507217439
-0.33675,-0.013340576033818
-0.3365,-0.008248248074764
-0.33625,-0.005192851299332
-0.336,-0.001458477462692
-0.33575,-0.000779500401485
-0.3355,0.00159691931274
-0.33525,0.000238965190326
-0.335,0.002275896373947
-0.33475,0.00159691931274
-0.3345,0.005331293149379
-0.33425,0.00634975874119
-0.334,0.01110259816964
-0.33375,0.011442086700244
-0.3335,0.016194926128694
-0.33325,0.014157994945073
-0.333,0.01483697200628
-0.33275,0.009065666986019
-0.3325,0.008726178455415
-0.33225,0.004312827557569
-0.332,0.00634975874119
-0.33175,0.005670781679983
-0.3315,0.010423621108433
-0.33125,0.01110259816964
-0.331,0.016194926128694
-0.33075,0.01585543759809
-0.3305,0.018910834373523
-0.33025,0.017892368781712
-0.33,0.021287254087748
-0.32975,0.020268788495937
-0.3295,0.021287254087748
-0.32925,0.018231857312316
-0.329,0.018231857312316
-0.32875,0.015176460536883
-0.3285,0.01585543759809
-0.32825,0.013139529353262
-0.328,0.011781575230847
-0.32775,0.008047201394208
-0.3275,0.007368224333001
-0.32725,0.005670781679983
-0.327,0.005670781679983
-0.32675,0.004312827557569
-0.3265,0.007028735802397
-0.32625,0.008047201394208
-0.326,0.010763109639037
-0.32575,0.013479017883865
-0.3255,0.016873903189901
-0.32525,0.018571345842919
-0.325,0.021626742618351
-0.32475,0.021287254087748
-0.3245,0.021287254087748
-0.32425,0.015176460536883
-0.324,0.013818506414469
-0.32375,0.01110259816964
-0.3235,0.012121063761451
-0.32325,0.007368224333001
-0.323,0.004652316088172
-0.32275,-0.001118988932089
-0.3225,-0.002816431585107
-0.32225,-0.006550805421746
-0.322,-0.009266713666575
-0.32175,-0.013340576033818
-0.3215,-0.014019553095025
-0.32125,-0.015038018686836
-0.321,-0.014019553095025
-0.32075,-0.014698530156232
-0.3205,-0.016056484278646
-0.32025,-0.019111881054079
-0.32,-0.022167277829511
-0.31975,-0.024204209013132
-0.3195,-0.025222674604943
-0.31925,-0.02488318607434
-0.319,-0.025562163135547
-0.31875,-0.025562163135547
-0.3185,-0.02590165166615
-0.31825,-0.024204209013132
-0.318,-0.025222674604943
-0.31775,-0.023864720482529
-0.3175,-0.02488318607434
-0.31725,-0.022167277829511
-0.317,-0.021827789298907
-0.31675,-0.018432903992872
-0.3165,-0.016735461339854
-0.31625,-0.013001087503214
-0.316,-0.014019553095025
-0.31575,-0.011303644850196
-0.3155,-0.010285179258386
-0.31525,-0.005871828360539
-0.315,-0.005192851299332
-0.31475,-0.001797965993296
-0.3145,-0.00315592011571
-0.31425,-0.000779500401485
-0.314,-0.00315592011571
-0.31375,-0.000440011870882
-0.3135,0.000238965190326
-0.31325,0.006010270210586
-0.313,0.008047201394208
-0.31275,0.01483697200628
-0.3125,0.016534414659298
-0.31225,0.021966231148955
-0.312,0.022305719679559
-0.31175,0.025361116454991
-0.3115,0.022984696740766
-0.31125,0.025021627924387
-0.311,0.021626742618351
-0.31075,0.023324185271369
-0.3105,0.021626742618351
-0.31025,0.025700604985594
-0.31,0.024682139393784
-0.30975,0.02909549029163
-0.3095,0.024682139393784
-0.30925,0.027398047638612
-0.309,0.023324185271369
-0.30875,0.025361116454991
-0.3085,0.020947765557144
-0.30825,0.023663673801973
-0.308,0.018571345842919
-0.30775,0.020608277026541
-0.3075,0.016194926128694
-0.30725,0.018910834373523
-0.307,0.013818506414469
-0.30675,0.017213391720505
-0.3065,0.013479017883865
-0.30625,0.018571345842919
-0.306,0.015515949067487
-0.30575,0.018231857312316
-0.3055,0.013479017883865
-0.30525,0.01483697200628
-0.305,0.009065666986019
-0.30475,0.010763109639037
-0.3045,0.005670781679983
-0.30425,0.008047201394208
-0.304,0.002954873435154
-0.30375,0.003973339026965
-0.3035,-0.002476943054503
-0.30325,-0.002476943054503
-0.303,-0.009606202197178
-0.30275,-0.009266713666575
-0.3025,-0.013340576033818
-0.30225,-0.011303644850196
-0.302,-0.016056484278646
-0.30175,-0.014359041625629
-0.3015,-0.018432903992872
-0.30125,-0.017074949870457
-0.301,-0.018432903992872
-0.30075,-0.016056484278646
-0.3005,-0.021488300768304
-0.30025,-0.021488300768304
-0.3,-0.028617559910979
-0.29975,-0.026580628727358
-0.2995,-0.031672956686411
-0.29925,-0.030993979625204
-0.299,-0.03438886493124
-0.29875,-0.030654491094601
-0.2985,-0.030654491094601
-0.29825,-0.026241140196754
-0.298,-0.027599094319168
-0.29775,-0.023864720482529
-0.2975,-0.026920117257961
-0.29725,-0.024543697543736
-0.297,-0.027599094319168
-0.29675,-0.025222674604943
-0.2965,-0.02488318607434
-0.29625,-0.019111881054079
-0.296,-0.01639597280925
-0.29575,-0.009945690727782
-0.2955,-0.006550805421746
-0.29525,-0.000779500401485
-0.295,0.001257430782136
-0.29475,0.004991804618776
-0.2945,0.005331293149379
-0.29425,0.008047201394208
-0.294,0.008386689924812
-0.29375,0.010763109639037
-0.2935,0.01110259816964
-0.29325,0.012121063761451
-0.293,0.01110259816964
-0.29275,0.010423621108433
-0.2925,0.009405155516622
-0.29225,0.01110259816964
-0.292,0.013479017883865
-0.29175,0.016534414659298
-0.2915,0.017213391720505
-0.29125,0.018910834373523
-0.291,0.020268788495937
-0.29075,0.022645208210162
-0.2905,0.025361116454991
-0.29025,0.027058559108009
-0.29,0.027058559108009
-0.28975,0.025361116454991
-0.2895,0.021626742618351
-0.28925,0.017552880251108
-0.289,0.013818506414469
-0.28875,0.010763109639037
-0.2885,0.009405155516622
-0.28825,0.007368224333001
-0.288,0.006689247271794
-0.28775,0.005670781679983
-0.2875,0.00634975874119
-0.28725,0.006010270210586
-0.287,0.007028735802397
-0.28675,0.006010270210586
-0.2865,0.009744644047226
-0.28625,0.011781575230847
-0.286,0.016194926128694
-0.28575,0.016534414659298
-0.2855,0.018910834373523
-0.28525,0.01585543759809
-0.285,0.01483697200628
-0.28475,0.01008413257783
-0.2845,0.008047201394208
-0.28425,0.003294361965758
-0.284,0.001936407843344
-0.28375,-0.004853362768728
-0.2835,-0.007569271013557
-0.28325,-0.013680064564421
-0.283,-0.014019553095025
-0.28275,-0.018772392523475
-0.2825,-0.016735461339854
-0.28225,-0.020130346645889
-0.282,-0.018772392523475
-0.28175,-0.021827789298907
-0.2815,-0.020469835176493
-0.28125,-0.023525231951925
-0.281,-0.0211488122377
-0.28075,-0.023864720482529
-0.2805,-0.022167277829511
-0.28025,-0.02590165166615
-0.28,-0.025222674604943
-0.27975,-0.026920117257961
-0.2795,-0.024204209013132
-0.27925,-0.02590165166615
-0.279,-0.024204209013132
-0.27875,-0.026920117257961
-0.2785,-0.02590165166615
-0.27825,-0.026580628727358
-0.278,-0.023185743421322
-0.27775,-0.023525231951925
-0.2775,-0.021488300768304
-0.27725,-0.021488300768304
-0.277,-0.018432903992872
-0.27675,-0.017753926931664
-0.2765,-0.015716995748043
-0.27625,-0.015377507217439
-0.276,-0.012322110442007
-0.27575,-0.010285179258386
-0.2755,-0.007229782482953
-0.27525,-0.008927225135971
-0.275,-0.007229782482953
-0.27475,-0.00689029395235
-0.2745,-0.004513874238125
-0.27425,-0.00315592011571
-0.274,-0.000100523340278
-0.27375,0.001257430782136
-0.2735,0.004312827557569
-0.27325,0.006010270210586
-0.273,0.009065666986019
-0.27275,0.009744644047226
-0.2725,0.012800040822658
-0.27225,0.013479017883865
-0.272,0.016194926128694
-0.27175,0.016194926128694
-0.2715,0.016873903189901
-0.27125,0.015515949067487
-0.271,0.014157994945073
-0.27075,0.013139529353262
-0.2705,0.012460552292055
-0.27025,0.012121063761451
-0.27,0.013479017883865
-0.26975,0.015515949067487
-0.2695,0.01483697200628
-0.26925,0.01483697200628
-0.269,0.013479017883865
-0.26875,0.012800040822658
-0.2685,0.01110259816964
-0.26825,0.011781575230847
-0.268,0.009744644047226
-0.26775,0.010763109639037
-0.2675,0.009065666986019
-0.26725,0.010423621108433
-0.267,0.008047201394208
-0.26675,0.008726178455415
-0.2665,0.007028735802397
-0.26625,0.010423621108433
-0.266,0.008386689924812
-0.26575,0.008386689924812
-0.2655,0.004312827557569
-0.26525,0.004312827557569
-0.265,-0.001118988932089
-0.26475,-0.001797965993296
-0.2645,-0.005871828360539
-0.26425,-0.005871828360539
-0.264,-0.010964156319593
-0.26375,-0.011303644850196
-0.2635,-0.016056484278646
-0.26325,-0.01639597280925
-0.263,-0.020130346645889
-0.26275,-0.020469835176493
-0.2625,-0.024204209013132
-0.26225,-0.023864720482529
-0.262,-0.027259605788565
-0.26175,-0.02488318607434
-0.2615,-0.02590165166615
-0.26125,-0.022167277829511
-0.261,-0.02488318607434
-0.26075,-0.022846254890718
-0.2605,-0.027938582849772
-0.26025,-0.028617559910979
-0.26,-0.03438886493124
-0.25975,-0.031672956686411
-0.2595,-0.032691422278222
-0.25925,-0.026241140196754
-0.259,-0.027259605788565
-0.25875,-0.022846254890718
-0.2585,-0.024543697543736
-0.25825,-0.019111881054079
-0.258,-0.020469835176493
-0.25775,-0.015716995748043
-0.2575,-0.018772392523475
-0.25725,-0.013001087503214
-0.257,-0.015038018686836
-0.25675,-0.009945690727782
-0.2565,-0.011982621911403
-0.25625,-0.006550805421746
-0.256,-0.009266713666575
-0.25575,-0.00315592011571
-0.2555,-0.005532339829935
-0.25525,-0.002816431585107
-0.255,-0.004513874238125
-0.25475,-0.001458477462692
-0.2545,-0.004853362768728
-0.25425,-0.000100523340278
-0.254,-0.001797965993296
-0.25375,0.001936407843344
-0.2535,0.00159691931274
-0.25325,0.008726178455415
-0.253,0.010763109639037
-0.25275,0.016534414659298
-0.2525,0.013139529353262
-0.25225,0.01585543759809
-0.252,0.011781575230847
-0.25175,0.01585543759809
-0.2515,0.013479017883865
-0.25125,0.017892368781712
-0.251,0.01585543759809
-0.25075,0.020268788495937
-0.2505,0.016873903189901
-0.25025,0.019929299965333
-0.25,0.01585543759809
-0.24975,0.018910834373523
-0.2495,0.014497483475676
-0.24925,0.017552880251108
-0.249,0.014497483475676
-0.24875,0.017892368781712
-0.2485,0.016873903189901
-0.24825,0.022305719679559
-0.248,0.019250322904126
-0.24775,0.019929299965333
-0.2475,0.01483697200628
-0.24725,0.014157994945073
-0.247,0.008047201394208
-0.24675,0.008047201394208
-0.2465,0.005670781679983
-0.24625,0.01008413257783
-0.246,0.010763109639037
-0.24575,0.014157994945073
-0.2455,0.012460552292055
-0.24525,0.01483697200628
-0.245,0.012800040822658
-0.24475,0.013139529353262
-0.2445,0.009405155516622
-0.24425,0.008726178455415
-0.244,0.006010270210586
-0.24375,0.004652316088172
-0.2435,0.001257430782136
-0.24325,-0.001458477462692
-0.243,-0.005192851299332
-0.24275,-0.008927225135971
-0.2425,-0.012322110442007
-0.24225,-0.014698530156232
-0.242,-0.018772392523475
-0.24175,-0.020130346645889
-0.2415,-0.020809323707097
-0.24125,-0.021488300768304
-0.241,-0.023185743421322
-0.24075,-0.02488318607434
-0.2405,-0.027599094319168
-0.24025,-0.029975514033393
-0.24,-0.032351933747618
-0.23975,-0.032012445217015
-0.2395,-0.02963602550279
-0.23925,-0.027599094319168
-0.239,-0.025222674604943
-0.23875,-0.02488318607434
-0.2385,-0.023864720482529
-0.23825,-0.022506766360115
-0.238,-0.020469835176493
-0.23775,-0.020130346645889
-0.2375,-0.018432903992872
-0.23725,-0.018093415462268
-0.237,-0.015716995748043
-0.23675,-0.016056484278646
-0.2365,-0.011982621911403
-0.23625,-0.0116431333808
-0.236,-0.008248248074764
-0.23575,-0.007569271013557
-0.2355,-0.004174385707521
-0.23525,-0.004174385707521
-0.235,-0.001458477462692
-0.23475,-0.002816431585107
-0.2345,-0.000779500401485
-0.23425,-0.001458477462692
-0.234,0.001936407843344
-0.23375,0.001936407843344
-0.2335,0.006689247271794
-0.23325,0.00634975874119
-0.233,0.01008413257783
-0.23275,0.008386689924812
-0.2325,0.012460552292055
-0.23225,0.011442086700244
-0.232,0.014497483475676
-0.23175,0.009405155516622
-0.2315,0.011781575230847
-0.23125,0.007028735802397
-0.231,0.007028735802397
-0.23075,0.004652316088172
-0.2305,0.007707712863604
-0.23025,0.009405155516622
-0.23,0.01585543759809
-0.22975,0.01483697200628
-0.2295,0.016534414659298
-0.22925,0.013479017883865
-0.229,0.017892368781712
-0.22875,0.016194926128694
-0.2285,0.017892368781712
-0.22825,0.016534414659298
-0.228,0.016534414659298
-0.22775,0.014497483475676
-0.2275,0.015515949067487
-0.22725,0.013818506414469
-0.227,0.014157994945073
-0.22675,0.011781575230847
-0.2265,0.012800040822658
-0.22625,0.012800040822658
-0.226,0.013139529353262
-0.22575,0.009405155516622
-0.2255,0.008386689924812
-0.22525,0.006010270210586
-0.225,0.00634975874119
-0.22475,0.004991804618776
-0.2245,0.005670781679983
-0.22425,0.004312827557569
-0.224,0.003633850496361
-0.22375,0.000578453720929
-0.2235,-0.000440011870882
-0.22325,-0.004853362768728
-0.223,-0.006550805421746
-0.22275,-0.010624667788989
-0.2225,-0.013001087503214
-0.22225,-0.017074949870457
-0.222,-0.020809323707097
-0.22175,-0.025222674604943
-0.2215,-0.026920117257961
-0.22125,-0.027259605788565
-0.221,-0.026580628727358
-0.22075,-0.02590165166615
-0.2205,-0.026241140196754
-0.22025,-0.027599094319168
-0.22,-0.02963602550279
-0.21975,-0.029296536972186
-0.2195,-0.029975514033393
-0.21925,-0.030315002563997
-0.219,-0.032012445217015
-0.21875,-0.032691422278222
-0.2185,-0.034049376400636
-0.21825,-0.031333468155808
-0.218,-0.031672956686411
-0.21775,-0.028617559910979
-0.2175,-0.028278071380375
-0.21725,-0.024543697543736
-0.217,-0.024204209013132
-0.21675,-0.020469835176493
-0.2165,-0.019111881054079
-0.21625,-0.014359041625629
-0.216,-0.014698530156232
-0.21575,-0.011303644850196
-0.2155,-0.010285179258386
-0.21525,-0.006550805421746
-0.215,-0.007229782482953
-0.21475,-0.003495408646314
-0.2145,-0.004853362768728
-0.21425,-0.001458477462692
-0.214,-0.00315592011571
-0.21375,-0.000440011870882
-0.2135,-0.001797965993296
-0.21325,0.000917942251533
-0.213,-0.000100523340278
-0.21275,0.004312827557569
-0.2125,0.004991804618776
-0.21225,0.009744644047226
-0.212,0.010423621108433
-0.21175,0.013818506414469
-0.2115,0.012121063761451
-0.21125,0.01483697200628
-0.211,0.012121063761451
-0.21075,0.014497483475676
-0.2105,0.01110259816964
-0.21025,0.017552880251108
-0.21,0.016873903189901
-0.20975,0.022645208210162
-0.2095,0.019250322904126
-0.20925,0.022645208210162
-0.209,0.018231857312316
-0.20875,0.019929299965333
-0.2085,0.016534414659298
-0.20825,0.019929299965333
-0.208,0.01585543759809
-0.20775,0.018231857312316
-0.2075,0.012800040822658
-0.20725,0.014497483475676
-0.207,0.007707712863604
-0.20675,0.008386689924812
-0.2065,0.003973339026965
-0.20625,0.008047201394208
-0.206,0.005670781679983
-0.20575,0.009744644047226
-0.2055,0.005670781679983
-0.20525,0.01008413257783
-0.205,0.005331293149379
-0.20475,0.007028735802397
-0.2045,0.001257430782136
-0.20425,0.003973339026965
-0.204,-0.001458477462692
-0.20375,0.000238965190326
-0.2035,-0.004853362768728
-0.20325,-0.004174385707521
-0.203,-0.009606202197178
-0.20275,-0.007569271013557
-0.2025,-0.011982621911403
-0.20225,-0.009606202197178
-0.202,-0.013680064564421
-0.20175,-0.010285179258386
-0.2015,-0.015377507217439
-0.20125,-0.015038018686836
-0.201,-0.0211488122377
-0.20075,-0.020130346645889
-0.2005,-0.02488318607434
-0.20025,-0.023185743421322
-0.2,-0.026580628727358
-0.19975,-0.021827789298907
-0.1995,-0.022167277829511
-0.19925,-0.016735461339854
-0.199,-0.017753926931664
-0.19875,-0.014359041625629
-0.1985,-0.015377507217439
-0.19825,-0.011303644850196
-0.198,-0.013001087503214
-0.19775,-0.009606202197178
-0.1975,-0.012661598972611
-0.19725,-0.010285179258386
-0.197,-0.012661598972611
-0.19675,-0.010285179258386
-0.1965,-0.011303644850196
-0.19625,-0.00790875954416
-0.196,-0.008587736605368
-0.19575,-0.004853362768728
-0.1955,-0.004174385707521
-0.19525,0.000578453720929
-0.195,0.003294361965758
-0.19475,0.009744644047226
-0.1945,0.012800040822658
-0.19425,0.017552880251108
-0.194,0.017892368781712
-0.19375,0.019250322904126
-0.1935,0.01958981143473
-0.19325,0.020608277026541
-0.193,0.020268788495937
-0.19275,0.020268788495937
-0.1925,0.020268788495937
-0.19225,0.020947765557144
-0.192,0.021287254087748
-0.19175,0.021287254087748
-0.1915,0.021626742618351
-0.19125,0.022984696740766
-0.191,0.022305719679559
-0.19075,0.022984696740766
-0.1905,0.02434265086318
-0.19025,0.027058559108009
-0.19,0.02909549029163
-0.18975,0.029774467352837
-0.1895,0.02909549029163
-0.18925,0.028077024699819
-0.189,0.027398047638612
-0.18875,0.028077024699819
-0.1885,0.028756001761027
-0.18825,0.027398047638612
-0.188,0.028416513230423
-0.18775,0.028077024699819
-0.1875,0.02909549029163
-0.18725,0.027058559108009
-0.187,0.028077024699819
-0.18675,0.025700604985594
-0.1865,0.026719070577405
-0.18625,0.025021627924387
-0.186,0.026719070577405
-0.18575,0.025361116454991
-0.1855,0.028077024699819
-0.18525,0.025361116454991
-0.185,0.025361116454991
-0.18475,0.021626742618351
-0.1845,0.020608277026541
-0.18425,0.016194926128694
-0.184,0.01585543759809
-0.18375,0.011781575230847
-0.1835,0.013479017883865
-0.18325,0.01110259816964
-0.183,0.013139529353262
-0.18275,0.009744644047226
-0.1825,0.010423621108433
-0.18225,0.00634975874119
-0.182,0.006010270210586
-0.18175,0.000917942251533
-0.1815,0.002954873435154
-0.18125,-0.000440011870882
-0.181,0.000578453720929
-0.18075,-0.00315592011571
-0.1805,-0.003495408646314
-0.18025,-0.009266713666575
-0.18,-0.009945690727782
-0.17975,-0.013001087503214
-0.1795,-0.010285179258386
-0.17925,-0.011303644850196
-0.179,-0.00790875954416
-0.17875,-0.009606202197178
-0.1785,-0.006550805421746
-0.17825,-0.005532339829935
-0.178,-0.001797965993296
-0.17775,-0.001797965993296
-0.1775,-0.001458477462692
-0.17725,-0.004513874238125
-0.177,-0.005532339829935
-0.17675,-0.006550805421746
-0.1765,-0.000779500401485
-0.17625,0.004312827557569
-0.176,0.009744644047226
-0.17575,0.011781575230847
-0.1755,0.015176460536883
-0.17525,0.01585543759809
-0.175,0.018571345842919
-0.17475,0.01958981143473
-0.1745,0.021966231148955
-0.17425,0.022984696740766
-0.174,0.024003162332576
-0.17375,0.023663673801973
-0.1735,0.02434265086318
-0.17325,0.022645208210162
-0.173,0.023324185271369
-0.17275,0.021966231148955
-0.1725,0.022984696740766
-0.17225,0.023324185271369
-0.172,0.024682139393784
-0.17175,0.023663673801973
-0.1715,0.022305719679559
-0.17125,0.020268788495937
-0.171,0.019250322904126
-0.17075,0.019929299965333
-0.1705,0.021966231148955
-0.17025,0.025021627924387
-0.17,0.026379582046802
-0.16975,0.027058559108009
-0.1695,0.026379582046802
-0.16925,0.027058559108009
-0.169,0.026719070577405
-0.16875,0.027398047638612
-0.1685,0.025700604985594
-0.16825,0.026379582046802
-0.168,0.021287254087748
-0.16775,0.019929299965333
-0.1675,0.016534414659298
-0.16725,0.017552880251108
-0.167,0.016194926128694
-0.16675,0.018571345842919
-0.1665,0.016873903189901
-0.16625,0.018231857312316
-0.166,0.018910834373523
-0.16575,0.020608277026541
-0.1655,0.018571345842919
-0.16525,0.020608277026541
-0.165,0.017213391720505
-0.16475,0.018231857312316
-0.1645,0.011442086700244
-0.16425,0.012800040822658
-0.164,0.01008413257783
-0.16375,0.01483697200628
-0.1635,0.01110259816964
-0.16325,0.010423621108433
-0.163,0.004652316088172
-0.16275,0.002954873435154
-0.1625,-0.002476943054503
-0.16225,-0.0021374545239
-0.162,-0.007229782482953
-0.16175,-0.004853362768728
-0.1615,-0.00790875954416
-0.16125,-0.005871828360539
-0.161,-0.010285179258386
-0.16075,-0.009266713666575
-0.1605,-0.014019553095025
-0.16025,-0.014698530156232
-0.16,-0.020809323707097
-0.15975,-0.018772392523475
-0.1595,-0.022167277829511
-0.15925,-0.018772392523475
-0.159,-0.022167277829511
-0.15875,-0.018093415462268
-0.1585,-0.019451369584682
-0.15825,-0.012661598972611
-0.158,-0.013680064564421
-0.15775,-0.007569271013557
-0.1575,-0.010285179258386
-0.15725,-0.005192851299332
-0.157,-0.00790875954416
-0.15675,-0.002476943054503
-0.1565,-0.003834897176917
-0.15625,0.001936407843344
-0.156,-0.000440011870882
-0.15575,0.003973339026965
-0.1555,0.001257430782136
-0.15525,0.005331293149379
-0.155,0.001936407843344
-0.15475,0.00634975874119
-0.1545,0.003294361965758
-0.15425,0.008047201394208
-0.154,0.005670781679983
-0.15375,0.01110259816964
-0.1535,0.010423621108433
-0.15325,0.017552880251108
-0.153,0.017213391720505
-0.15275,0.021287254087748
-0.1525,0.017892368781712
-0.15225,0.020608277026541
-0.152,0.016534414659298
-0.15175,0.019250322904126
-0.1515,0.015515949067487
-0.15125,0.018231857312316
-0.151,0.012800040822658
-0.15075,0.015176460536883
-0.1505,0.012800040822658
-0.15025,0.018910834373523
-0.15,0.019250322904126
-0.14975,0.025021627924387
-0.1495,0.022645208210162
-0.14925,0.025361116454991
-0.149,0.021966231148955
-0.14875,0.02434265086318
-0.1485,0.021287254087748
-0.14825,0.023324185271369
-0.148,0.019250322904126
-0.14775,0.020268788495937
-0.1475,0.016873903189901
-0.14725,0.019250322904126
-0.147,0.016873903189901
-0.14675,0.017552880251108
-0.1465,0.015176460536883
-0.14625,0.017892368781712
-0.146,0.016194926128694
-0.14575,0.017213391720505
-0.1455,0.012121063761451
-0.14525,0.013139529353262
-0.145,0.01008413257783
-0.14475,0.008726178455415
-0.1445,0.004991804618776
-0.14425,0.003633850496361
-0.144,-0.000100523340278
-0.14375,-0.004513874238125
-0.1435,-0.00790875954416
-0.14325,-0.009945690727782
-0.143,-0.010624667788989
-0.14275,-0.013001087503214
-0.1425,-0.015716995748043
-0.14225,-0.019451369584682
-0.142,-0.022846254890718
-0.14175,-0.023864720482529
-0.1415,-0.023864720482529
-0.14125,-0.023185743421322
-0.141,-0.023525231951925
-0.14075,-0.025222674604943
-0.1405,-0.027938582849772
-0.14025,-0.030993979625204
-0.14,-0.034049376400636
-0.13975,-0.035407330523051
-0.1395,-0.035407330523051
-0.13925,-0.035746819053654
-0.139,-0.03438886493124
-0.13875,-0.033709887870033
-0.1385,-0.030993979625204
-0.13825,-0.028957048441583
-0.138,-0.026580628727358
-0.13775,-0.026241140196754
-0.1375,-0.025222674604943
-0.13725,-0.025562163135547
-0.137,-0.023185743421322
-0.13675,-0.022846254890718
-0.1365,-0.019451369584682
-0.13625,-0.018772392523475
-0.136,-0.016056484278646
-0.13575,-0.014698530156232
-0.1355,-0.010285179258386
-0.13525,-0.009945690727782
-0.135,-0.006211316891142
-0.13475,-0.006550805421746
-0.1345,-0.00315592011571
-0.13425,-0.003834897176917
-0.134,-0.000100523340278
-0.13375,-0.001797965993296
-0.1335,0.001936407843344
-0.13325,0.001257430782136
-0.133,0.004991804618776
-0.13275,0.002954873435154
-0.1325,0.00634975874119
-0.13225,0.004652316088172
-0.132,0.007707712863604
-0.13175,0.003973339026965
-0.1315,0.006010270210586
-0.13125,0.002615384904551
-0.131,0.004652316088172
-0.13075,0.002275896373947
-0.1305,0.00634975874119
-0.13025,0.008726178455415
-0.13,0.01483697200628
-0.12975,0.015515949067487
-0.1295,0.018571345842919
-0.12925,0.017892368781712
-0.129,0.020608277026541
-0.12875,0.018910834373523
-0.1285,0.020608277026541
-0.12825,0.018571345842919
-0.128,0.019250322904126
-0.12775,0.018231857312316
-0.1275,0.01958981143473
-0.12725,0.018231857312316
-0.127,0.018571345842919
-0.12675,0.016534414659298
-0.1265,0.018571345842919
-0.12625,0.019929299965333
-0.126,0.021626742618351
-0.12575,0.019929299965333
-0.1255,0.017892368781712
-0.12525,0.013818506414469
-0.125,0.012800040822658
-0.12475,0.010763109639037
-0.1245,0.01008413257783
-0.12425,0.007368224333001
-0.124,0.009744644047226
-0.12375,0.009405155516622
-0.1235,0.010423621108433
-0.12325,0.008386689924812
-0.123,0.007028735802397
-0.12275,0.002615384904551
-0.1225,-0.001458477462692
-0.12225,-0.004853362768728
-0.122,-0.00689029395235
-0.12175,-0.00689029395235
-0.1215,-0.008248248074764
-0.12125,-0.009606202197178
-0.121,-0.010964156319593
-0.12075,-0.012322110442007
-0.1205,-0.015038018686836
-0.12025,-0.018432903992872
-0.12,-0.021488300768304
-0.11975,-0.0211488122377
-0.1195,-0.021488300768304
-0.11925,-0.020809323707097
-0.119,-0.021827789298907
-0.11875,-0.021827789298907
-0.1185,-0.022846254890718
-0.11825,-0.020469835176493
-0.118,-0.020809323707097
-0.11775,-0.017753926931664
-0.1175,-0.018432903992872
-0.11725,-0.014698530156232
-0.117,-0.015038018686836
-0.11675,-0.010285179258386
-0.1165,-0.009266713666575
-0.11625,-0.004513874238125
-0.116,-0.004513874238125
-0.11575,-0.000440011870882
-0.1155,-0.000779500401485
-0.11525,0.002954873435154
-0.115,0.00159691931274
-0.11475,0.004991804618776
-0.1145,0.002954873435154
-0.11425,0.006010270210586
-0.114,0.002954873435154
-0.11375,0.005331293149379
-0.1135,0.003294361965758
-0.11325,0.007028735802397
-0.113,0.006689247271794
-0.11275,0.011442086700244
-0.1125,0.011442086700244
-0.11225,0.01585543759809
-0.112,0.014157994945073
-0.11175,0.017552880251108
-0.1115,0.014497483475676
-0.11125,0.017552880251108
-0.111,0.013479017883865
-0.11075,0.016534414659298
-0.1105,0.014497483475676
-0.11025,0.017892368781712
-0.11,0.01585543759809
-0.10975,0.01958981143473
-0.1095,0.01483697200628
-0.10925,0.016194926128694
-0.109,0.01110259816964
-0.10875,0.012460552292055
-0.1085,0.007368224333001
-0.10825,0.009065666986019
-0.108,0.003633850496361
-0.10775,0.00634975874119
-0.1075,0.001936407843344
-0.10725,0.005670781679983
-0.107,0.000238965190326
-0.10675,0.003633850496361
-0.1065,0.000917942251533
-0.10625,0.006689247271794
-0.106,0.004312827557569
-0.10575,0.009065666986019
-0.1055,0.00634975874119
-0.10525,0.009065666986019
-0.105,0.003633850496361
-0.10475,0.004312827557569
-0.1045,-0.002476943054503
-0.10425,-0.002476943054503
-0.104,-0.008248248074764
-0.10375,-0.007569271013557
-0.1035,-0.012661598972611
-0.10325,-0.011982621911403
-0.103,-0.020469835176493
-0.10275,-0.018432903992872
-0.1025,-0.023185743421322
-0.10225,-0.021488300768304
-0.102,-0.02590165166615
-0.10175,-0.023185743421322
-0.1015,-0.027599094319168
-0.10125,-0.02590165166615
-0.101,-0.028617559910979
-0.10075,-0.023864720482529
-0.1005,-0.024204209013132
-0.10025,-0.022167277829511
-0.1,-0.02590165166615
-0.09975,-0.022167277829511
-0.0995,-0.023185743421322
-0.09925,-0.018432903992872
-0.099,-0.019451369584682
-0.09875,-0.013340576033818
-0.0985,-0.012322110442007
-0.09825,-0.00689029395235
-0.098,-0.007569271013557
-0.09775,-0.004513874238125
-0.0975,-0.00790875954416
-0.09725,-0.00790875954416
-0.097,-0.012322110442007
-0.09675,-0.0116431333808
-0.0965,-0.012661598972611
-0.09625,-0.009606202197178
-0.096,-0.009606202197178
-0.09575,-0.004513874238125
-0.0955,-0.0021374545239
-0.09525,0.003973339026965
-0.095,0.007707712863604
-0.09475,0.012460552292055
-0.0945,0.015176460536883
-0.09425,0.018231857312316
-0.094,0.017552880251108
-0.09375,0.016873903189901
-0.0935,0.01483697200628
-0.09325,0.01483697200628
-0.093,0.01483697200628
-0.09275,0.015176460536883
-0.0925,0.016194926128694
-0.09225,0.017552880251108
-0.092,0.017213391720505
-0.09175,0.016873903189901
-0.0915,0.016194926128694
-0.09125,0.017213391720505
-0.091,0.017552880251108
-0.09075,0.018231857312316
-0.0905,0.019250322904126
-0.09025,0.019929299965333
-0.09,0.021966231148955
-0.08975,0.021966231148955
-0.0895,0.021287254087748
-0.08925,0.019929299965333
-0.089,0.019929299965333
-0.08875,0.018910834373523
-0.0885,0.019929299965333
-0.08825,0.019250322904126
-0.088,0.018571345842919
-0.08775,0.017552880251108
-0.0875,0.017552880251108
-0.08725,0.016534414659298
-0.087,0.017213391720505
-0.08675,0.015515949067487
-0.0865,0.01958981143473
-0.08625,0.020947765557144
-0.086,0.025021627924387
-0.08575,0.02434265086318
-0.0855,0.026379582046802
-0.08525,0.024682139393784
-0.085,0.024003162332576
-0.08475,0.018571345842919
-0.0845,0.016534414659298
-0.08425,0.01110259816964
-0.084,0.010423621108433
-0.08375,0.006689247271794
-0.0835,0.008047201394208
-0.08325,0.003633850496361
-0.083,0.003294361965758
-0.08275,-0.000779500401485
-0.0825,-0.000100523340278
-0.08225,-0.005532339829935
-0.082,-0.0021374545239
-0.08175,-0.004174385707521
-0.0815,-0.0021374545239
-0.08125,-0.005192851299332
-0.081,-0.003834897176917
-0.08075,-0.008587736605368
-0.0805,-0.012322110442007
-0.08025,-0.019451369584682
-0.08,-0.020809323707097
-0.07975,-0.021827789298907
-0.0795,-0.018432903992872
-0.07925,-0.018772392523475
-0.079,-0.015038018686836
-0.07875,-0.015377507217439
-0.0785,-0.012322110442007
-0.07825,-0.013001087503214
-0.078,-0.010964156319593
-0.07775,-0.011303644850196
-0.0775,-0.009606202197178
-0.07725,-0.009266713666575
-0.077,-0.007569271013557
-0.07675,-0.007229782482953
-0.0765,-0.002816431585107
-0.07625,-0.000100523340278
-0.076,0.004312827557569
-0.07575,0.006689247271794
-0.0755,0.010423621108433
-0.07525,0.010763109639037
-0.075,0.013139529353262
-0.07475,0.014497483475676
-0.0745,0.018571345842919
-0.07425,0.020268788495937
-0.074,0.022984696740766
-0.07375,0.023663673801973
-0.0735,0.025361116454991
-0.07325,0.025361116454991
-0.073,0.027058559108009
-0.07275,0.027398047638612
-0.0725,0.029434978822234
-0.07225,0.031471910005855
-0.072,0.034527306781288
-0.07175,0.036564237964909
-0.0715,0.038601169148531
-0.07125,0.039280146209738
-0.071,0.038940657679134
-0.07075,0.039619634740341
-0.0705,0.038940657679134
-0.07025,0.040977588862756
-0.07,0.040977588862756
-0.06975,0.040638100332152
-0.0695,0.039959123270945
-0.06925,0.040977588862756
-0.069,0.040298611801548
-0.06875,0.04233554298517
-0.0685,0.041317077393359
-0.06825,0.042675031515774
-0.068,0.040638100332152
-0.06775,0.041656565923963
-0.0675,0.039619634740341
-0.06725,0.040977588862756
-0.067,0.036564237964909
-0.06675,0.036564237964909
-0.0665,0.03384832972008
-0.06625,0.037243215026116
-0.066,0.035545772373098
-0.06575,0.036564237964909
-0.0655,0.031811398536459
-0.06525,0.032490375597666
-0.065,0.027398047638612
-0.06475,0.026040093516198
-0.0645,0.020608277026541
-0.06425,0.020608277026541
-0.064,0.014497483475676
-0.06375,0.01483697200628
-0.0635,0.010763109639037
-0.06325,0.011781575230847
-0.063,0.007707712863604
-0.06275,0.008386689924812
-0.0625,0.004652316088172
-0.06225,0.006689247271794
-0.062,0.003633850496361
-0.06175,0.007028735802397
-0.0615,0.005331293149379
-0.06125,0.010763109639037
-0.061,0.008047201394208
-0.06075,0.01110259816964
-0.0605,0.009065666986019
-0.06025,0.012121063761451
-0.06,0.01008413257783
-0.05975,0.016873903189901
-0.0595,0.017213391720505
-0.05925,0.023663673801973
-0.059,0.01958981143473
-0.05875,0.027058559108009
-0.0585,0.026719070577405
-0.05825,0.034527306781288
-0.058,0.034527306781288
-0.05775,0.041317077393359
-0.0575,0.039959123270945
-0.05725,0.043693497107584
-0.057,0.043354008576981
-0.05675,0.053538664495088
-0.0565,0.058970480984745
-0.05625,0.068815648372249
-0.056,0.071192068086474
-0.05575,0.082055701065789
-0.0555,0.087148029024843
-0.05525,0.098690639065365
-0.055,0.103103989963211
-0.05475,0.114646600003733
-0.0545,0.119399439432183
-0.05425,0.130942049472705
-0.054,0.135355400370552
-0.05375,0.14655852188047
-0.0535,0.152669315431334
-0.05325,0.163193459880045
-0.053,0.167606810777892
-0.05275,0.175754535512378
-0.0525,0.177451978165396
-0.05225,0.185599702899882
-0.052,0.187976122614107
-0.05175,0.1968028244098
-0.0515,0.197821290001611
-0.05125,0.204271572083079
-0.051,0.202574129430061
-0.05075,0.206647991797304
-0.0505,0.204611060613682
-0.05025,0.209703388572736
-0.05,0.207326968858511
-0.04975,0.21106134269515
-0.0495,0.205629526205493
-0.04925,0.206987480327907
-0.049,0.200197709715836
-0.04875,0.197142312940403
-0.0485,0.1872971455529
-0.04825,0.183902260246864
-0.048,0.174736069920567
-0.04775,0.171341184614531
-0.0475,0.161156528696424
-0.04725,0.155045735145559
-0.047,0.145879544819262
-0.04675,0.142145170982623
-0.0465,0.136034377431759
-0.04625,0.133997446248137
-0.046,0.128226141227876
-0.04575,0.124152278860633
-0.0455,0.115665065595544
-0.04525,0.11057273763649
-0.045,0.102764501432608
-0.04475,0.096993196412347
-0.0445,0.089863937269671
-0.04425,0.086129563433032
-0.044,0.081716212535186
-0.04375,0.076623884576132
-0.0435,0.070852579555871
-0.04325,0.066439228658024
-0.043,0.060667923637763
-0.04275,0.053878153025692
-0.0425,0.048446336536034
-0.04225,0.041656565923963
-0.042,0.034527306781288
-0.04175,0.029434978822234
-0.0415,0.02434265086318
-0.04125,0.020947765557144
-0.041,0.017892368781712
-0.04075,0.014497483475676
-0.0405,0.012800040822658
-0.04025,0.009744644047226
-0.04,0.008047201394208
-0.03975,0.007707712863604
-0.0395,0.007368224333001
-0.03925,0.00634975874119
-0.039,0.007368224333001
-0.03875,0.008726178455415
-0.0385,0.011781575230847
-0.03825,0.015515949067487
-0.038,0.020268788495937
-0.03775,0.023324185271369
-0.0375,0.026379582046802
-0.03725,0.025700604985594
-0.037,0.027398047638612
-0.03675,0.025700604985594
-0.0365,0.027737536169216
-0.03625,0.025700604985594
-0.036,0.027058559108009
-0.03575,0.026040093516198
-0.0355,0.027737536169216
-0.03525,0.025700604985594
-0.035,0.026719070577405
-0.03475,0.02434265086318
-0.0345,0.025361116454991
-0.03425,0.021966231148955
-0.034,0.02434265086318
-0.03375,0.022645208210162
-0.0335,0.025700604985594
-0.03325,0.024003162332576
-0.033,0.027737536169216
-0.03275,0.025021627924387
-0.0325,0.025021627924387
-0.03225,0.020268788495937
-0.032,0.021626742618351
-0.03175,0.019250322904126
-0.0315,0.021287254087748
-0.03125,0.017892368781712
-0.031,0.019250322904126
-0.03075,0.017552880251108
-0.0305,0.020268788495937
-0.03025,0.018910834373523
-0.03,0.022984696740766
-0.02975,0.021287254087748
-0.0295,0.021626742618351
-0.02925,0.018231857312316
-0.029,0.018910834373523
-0.02875,0.01585543759809
-0.0285,0.017213391720505
-0.02825,0.015176460536883
-0.028,0.015515949067487
-0.02775,0.013479017883865
-0.0275,0.014497483475676
-0.02725,0.013818506414469
-0.027,0.013818506414469
-0.02675,0.011442086700244
-0.0265,0.012121063761451
-0.02625,0.01110259816964
-0.026,0.011781575230847
-0.02575,0.010423621108433
-0.0255,0.009744644047226
-0.02525,0.006689247271794
-0.025,0.004312827557569
-0.02475,0.000578453720929
-0.0245,-0.001797965993296
-0.02425,-0.004853362768728
-0.024,-0.007229782482953
-0.02375,-0.009945690727782
-0.0235,-0.011982621911403
-0.02325,-0.014698530156232
-0.023,-0.016056484278646
-0.02275,-0.017074949870457
-0.0225,-0.017414438401061
-0.02225,-0.019451369584682
-0.022,-0.022167277829511
-0.02175,-0.025562163135547
-0.0215,-0.028957048441583
-0.02125,-0.029975514033393
-0.021,-0.031672956686411
-0.02075,-0.032012445217015
-0.0205,-0.034049376400636
-0.02025,-0.035407330523051
-0.02,-0.037104773176069
-0.01975,-0.034728353461844
-0.0195,-0.032691422278222
-0.01925,-0.02963602550279
-0.019,-0.02963602550279
-0.01875,-0.028278071380375
-0.0185,-0.029296536972186
-0.01825,-0.027259605788565
-0.018,-0.027599094319168
-0.01775,-0.025222674604943
-0.0175,-0.026580628727358
-0.01725,-0.023525231951925
-0.017,-0.024543697543736
-0.01675,-0.021488300768304
-0.0165,-0.021488300768304
-0.01625,-0.018772392523475
-0.016,-0.0211488122377
-0.01575,-0.018093415462268
-0.0155,-0.019111881054079
-0.01525,-0.016056484278646
-0.015,-0.01639597280925
-0.01475,-0.0116431333808
-0.0145,-0.012322110442007
-0.01425,-0.008248248074764
-0.014,-0.010285179258386
-0.01375,-0.007569271013557
-0.0135,-0.009266713666575
-0.01325,-0.005532339829935
-0.013,-0.005532339829935
-0.01275,-0.000440011870882
-0.0125,-0.001118988932089
-0.01225,0.003973339026965
-0.012,0.002275896373947
-0.01175,0.006010270210586
-0.0115,0.001936407843344
-0.01125,0.004652316088172
-0.011,0.001257430782136
-0.01075,0.003633850496361
-0.0105,-0.000779500401485
-0.01025,0.005331293149379
-0.01,0.003633850496361
-0.00975,0.007707712863604
-0.0095,0.002615384904551
